"PointID","x","y","Density","Momentum_x","Momentum_y","Energy","Pressure","Temperature","Mach","Pressure_Coefficient"
0, 9.997500181200000e-01, -3.632896519016437e-05, 1.014067895194471e+00, 1.530542771138064e-01, 1.933023854315470e-02, 2.558806310220340e+00, 1.018828702308007e+00, 1.004694761698006e+00, 1.282725405985295e-01, 6.724536538573985e-01
1, 9.990000128750000e-01, -1.452537504052920e-04, 1.008924749010568e+00, 1.742002268960743e-01, 2.455075933500328e-02, 2.546874938718441e+00, 1.012615036511021e+00, 1.003657643946263e+00, 1.470970360411545e-01, 4.505370182507630e-01
2, 9.977599978450000e-01, -3.251111630156300e-04, 1.007678540009800e+00, 1.856168037507479e-01, 2.662980019116653e-02, 2.544337361748669e+00, 1.010755984109015e+00, 1.003053993884980e+00, 1.570338204418377e-01, 3.841422896076872e-01
3, 9.960200190539999e-01, -5.769983605901485e-04, 1.006525556131894e+00, 1.919035865351254e-01, 2.763516356277200e-02, 2.541782150621018e+00, 1.009243464451911e+00, 1.002700287442738e+00, 1.625794866501325e-01, 3.301237304254025e-01
4, 9.937800168990000e-01, -9.004365425509819e-04, 1.005807458935754e+00, 1.966334223638112e-01, 2.828935360921230e-02, 2.540242564457321e+00, 1.008249601314653e+00, 1.002428041626857e+00, 1.667249235696742e-01, 2.946286183804533e-01
5, 9.910500049590000e-01, -1.293363843462116e-03, 1.005232781580052e+00, 2.005886099362822e-01, 2.878364441795166e-02, 2.539024862524289e+00, 1.007439839662056e+00, 1.002195569148207e+00, 1.701865568749369e-01, 2.657085593591300e-01
6, 9.878399968150000e-01, -1.753609743384430e-03, 1.004741816531757e+00, 2.039590433513139e-01, 2.916060380491851e-02, 2.537987453351418e+00, 1.006745122584697e+00, 1.001993851574582e+00, 1.731354268394165e-01, 2.408972351677443e-01
7, 9.841300249100000e-01, -2.283176811071472e-03, 1.004309396614259e+00, 2.069301312138909e-01, 2.944988043460850e-02, 2.537076414506957e+00, 1.006130582548799e+00, 1.001813371397977e+00, 1.757328763924321e-01, 2.189493767428355e-01
8, 9.799500107769999e-01, -2.876826092032643e-03, 1.003907648173584e+00, 2.095673995888089e-01, 2.967161699056057e-02, 2.536224665622384e+00, 1.005564961670977e+00, 1.001650862507531e+00, 1.780400505709528e-01, 1.987486311063206e-01
9, 9.752799868580000e-01, -3.536324145770189e-03, 1.003541127797813e+00, 2.119729102216310e-01, 2.983611959961089e-02, 2.535449104062108e+00, 1.005047438184184e+00, 1.001500995170648e+00, 1.801422126470706e-01, 1.802656494351376e-01
10, 9.701499938960000e-01, -4.256268552403566e-03, 1.003198487516662e+00, 2.141899982823510e-01, 2.995344147689738e-02, 2.534723423505837e+00, 1.004564282771415e+00, 1.001361440703658e+00, 1.820784532883875e-01, 1.630100989790900e-01
11, 9.645400047300000e-01, -5.038225493362627e-03, 1.002875849298078e+00, 2.162519786050708e-01, 3.002918920055117e-02, 2.534039595633775e+00, 1.004109841975304e+00, 1.001230454076733e+00, 1.838777548340336e-01, 1.467800705465658e-01
12, 9.584699869160000e-01, -5.878077433056352e-03, 1.002570882363649e+00, 2.181876837550288e-01, 3.006743822132173e-02, 2.533393298483190e+00, 1.003680214853952e+00, 1.001106487840229e+00, 1.855649799684600e-01, 1.314362447839954e-01
13, 9.519400000570000e-01, -6.774428848839826e-03, 1.002280123720860e+00, 2.200116287494738e-01, 3.007182018519363e-02, 2.532776547862134e+00, 1.003271168079778e+00, 1.000988789795850e+00, 1.871531984286894e-01, 1.168274314206313e-01
14, 9.449599981310000e-01, -7.724467125531491e-03, 1.002002720834362e+00, 2.217420481729922e-01, 3.004506871178170e-02, 2.532188192899044e+00, 1.002880844801159e+00, 1.000876368844654e+00, 1.886580680390966e-01, 1.028873143271238e-01
15, 9.375399947170000e-01, -8.725349486403867e-03, 1.001736719203559e+00, 2.233888142164527e-01, 2.998975431682306e-02, 2.531623826767011e+00, 1.002506756321653e+00, 1.000768702098398e+00, 1.900884427370447e-01, 8.952701148759856e-02
16, 9.296900033950000e-01, -9.774221272349531e-03, 1.001480780173304e+00, 2.249617471669207e-01, 2.990784321188343e-02, 2.531080608991351e+00, 1.002147020396337e+00, 1.000665255126432e+00, 1.914529775016921e-01, 7.667929986917728e-02
17, 9.214000105860000e-01, -1.087086069705918e-02, 1.001233301685331e+00, 2.264692313354357e-01, 2.980168444521882e-02, 2.530554972201176e+00, 1.001799552261630e+00, 1.000565553078735e+00, 1.927592372320487e-01, 6.426972362965398e-02
18, 9.126999974250000e-01, -1.200973104171110e-02, 1.000994044956988e+00, 2.279211286600377e-01, 2.967259905211720e-02, 2.530046881705796e+00, 1.001463544229216e+00, 1.000469033032308e+00, 1.940156751260598e-01, 5.226943675771892e-02
19, 9.035800099370001e-01, -1.319055953446835e-02, 1.000761887230399e+00, 2.293214389368329e-01, 2.952277106141444e-02, 2.529553725780413e+00, 1.001137646922574e+00, 1.000375473623616e+00, 1.952260846866986e-01, 4.063024723479796e-02
20, 8.940600156780000e-01, -1.440916392228702e-02, 1.000536210709994e+00, 2.306749695999100e-01, 2.935276853271420e-02, 2.529074210568624e+00, 1.000820974649196e+00, 1.000284611327559e+00, 1.963946753423093e-01, 2.932052318555773e-02
21, 8.841500282290000e-01, -1.566269158090452e-02, 1.000317187797264e+00, 2.319859328127804e-01, 2.916364202620735e-02, 2.528609002111485e+00, 1.000513469541016e+00, 1.000196219505319e+00, 1.975250607457808e-01, 1.833819789342258e-02
22, 8.738499879840000e-01, -1.694956337677533e-02, 1.000102133872579e+00, 2.332591023048192e-01, 2.895749926880559e-02, 2.528151643852217e+00, 1.000212116856742e+00, 1.000109971752323e+00, 1.986220171890608e-01, 7.575602026505776e-03
23, 8.631799817090000e-01, -1.826569132102762e-02, 9.998933707939147e-01, 2.345000666204203e-01, 2.873468359504731e-02, 2.527708304996463e+00, 9.999189388920201e-01, 1.000025570824702e+00, 1.996898325009800e-01, -2.895039570710579e-03
24, 8.521599769590000e-01, -1.960709133914372e-02, 9.996879832990079e-01, 2.357081082691282e-01, 2.849583480536064e-02, 2.527271585686769e+00, 9.996310504992094e-01, 9.999430494306729e-01, 2.007285495577423e-01, -1.317676788537797e-02
25, 8.407700061800000e-01, -2.097463226217677e-02, 9.994869738226817e-01, 2.368913473204521e-01, 2.824222582233979e-02, 2.526844531213577e+00, 9.993489429462870e-01, 9.998618982738048e-01, 2.017449696097604e-01, -2.325203763260874e-02
26, 8.290500044819999e-01, -2.236196298315981e-02, 9.992892444387165e-01, 2.380492584939796e-01, 2.797391273117748e-02, 2.526424324699384e+00, 9.990715596387049e-01, 9.997821603692596e-01, 2.027388849078682e-01, -3.315858433196913e-02
27, 8.170099854470000e-01, -2.376642068849115e-02, 9.990943367003152e-01, 2.391851832248400e-01, 2.769168363568123e-02, 2.526010026046953e+00, 9.987982232398934e-01, 9.997036181173847e-01, 2.037133098098377e-01, -4.292059857523489e-02
28, 8.046399950980000e-01, -2.518763605296113e-02, 9.989011301833454e-01, 2.403007654272126e-01, 2.739544645032231e-02, 2.525598914057875e+00, 9.985277021396475e-01, 9.996261611560804e-01, 2.046698758264853e-01, -5.258206644116155e-02
29, 7.919700145720000e-01, -2.662062628442961e-02, 9.987107085026303e-01, 2.414033155377113e-01, 2.708592369293743e-02, 2.525194203773570e+00, 9.982606042492126e-01, 9.995493146818338e-01, 2.056146504040924e-01, -6.212127681383607e-02
30, 7.790099978450000e-01, -2.806276676215449e-02, 9.985219515164071e-01, 2.424830871076353e-01, 2.676098794310847e-02, 2.524792379615741e+00, 9.979964932287245e-01, 9.994737639098625e-01, 2.065394227534979e-01, -7.155381325983846e-02
31, 7.657799720760000e-01, -2.951033727360171e-02, 9.983374806654902e-01, 2.435536987072185e-01, 2.642033001672869e-02, 2.524400954021667e+00, 9.977371050805424e-01, 9.993986246168506e-01, 2.074552072707033e-01, -8.081767569491562e-02
32, 7.522799968720000e-01, -3.096181144522562e-02, 9.981519866982562e-01, 2.446113063165548e-01, 2.606571778264693e-02, 2.524006332852073e+00, 9.974773029899404e-01, 9.993240671588028e-01, 2.083600574628653e-01, -9.009632178784227e-02
33, 7.385200262070000e-01, -3.241453277608040e-02, 9.979687656916920e-01, 2.456639134272453e-01, 2.569515141297622e-02, 2.523617333894391e+00, 9.972198977498291e-01, 9.992496078358288e-01, 2.092599458595787e-01, -9.928936607753185e-02
34, 7.245299816130000e-01, -3.386376679305321e-02, 9.977846860606182e-01, 2.467126824187151e-01, 2.530989139470855e-02, 2.523226184442604e+00, 9.969616138280094e-01, 9.991751003557109e-01, 2.101566928248770e-01, -1.085137918568069e-01
35, 7.103199958800001e-01, -3.530689307158652e-02, 9.976013472265025e-01, 2.477501152817998e-01, 2.490619127731878e-02, 2.522836343552310e+00, 9.967046348033182e-01, 9.991011315034035e-01, 2.110433191318603e-01, -1.176916141672083e-01
36, 6.958900094030001e-01, -3.674225211597043e-02, 9.974181621453280e-01, 2.487870110052113e-01, 2.448420493022151e-02, 2.522447103639300e+00, 9.964475971877080e-01, 9.990269227146094e-01, 2.119292250293167e-01, -1.268715290104274e-01
37, 6.812700033190000e-01, -3.816515293304169e-02, 9.972345639062248e-01, 2.498183541324795e-01, 2.404172296757438e-02, 2.522056673287345e+00, 9.961902923828773e-01, 9.989528326021345e-01, 2.128101655780925e-01, -1.360609863258121e-01
38, 6.664699912070000e-01, -3.957289370556494e-02, 9.970508811150729e-01, 2.508552565099579e-01, 2.357894629581639e-02, 2.521666680601148e+00, 9.959322516347426e-01, 9.988780617905085e-01, 2.136956496984033e-01, -1.452767273306201e-01
39, 6.514999866490000e-01, -4.096270419333766e-02, 9.968654228320537e-01, 2.518861010971968e-01, 2.309255373885362e-02, 2.521272032670562e+00, 9.956726021818311e-01, 9.988034286044011e-01, 2.145759913490287e-01, -1.545499220774619e-01
40, 6.363800168040000e-01, -4.233084266562091e-02, 9.966804038976720e-01, 2.529274871572734e-01, 2.258216427571239e-02, 2.520879496204449e+00, 9.954123912955036e-01, 9.987277640884586e-01, 2.154649598886013e-01, -1.638431680177276e-01
41, 6.211299896240000e-01, -4.367359094194759e-02, 9.964925153130415e-01, 2.539621799160456e-01, 2.204444016134904e-02, 2.520479507772443e+00, 9.951495082254426e-01, 9.986522657551754e-01, 2.163484686862941e-01, -1.732318490913369e-01
42, 6.057599782940000e-01, -4.498807223669178e-02, 9.963052332495828e-01, 2.550101807499647e-01, 2.147845209372111e-02, 2.520082258706043e+00, 9.948860255970399e-01, 9.985755292603316e-01, 2.172429209476625e-01, -1.826419429628619e-01
43, 5.902799963950000e-01, -4.627132533375768e-02, 9.961143184158996e-01, 2.560520741791105e-01, 2.088070140307155e-02, 2.519675685628135e+00, 9.946190505388058e-01, 9.984988993236525e-01, 2.181326074187671e-01, -1.921767664712202e-01
44, 5.747100114820000e-01, -4.751950934859488e-02, 9.959241379217870e-01, 2.571094559665985e-01, 2.024962928405615e-02, 2.519272347214329e+00, 9.943514315614527e-01, 9.984208572717035e-01, 2.190351140193924e-01, -2.017345870909762e-01
45, 5.590599775310000e-01, -4.872955796694115e-02, 9.957297938251443e-01, 2.581599630013382e-01, 1.958190931057362e-02, 2.518858305422423e+00, 9.940798267338067e-01, 9.983429569933838e-01, 2.199324274943059e-01, -2.114347595069043e-01
46, 5.433599948880000e-01, -4.989683951066199e-02, 9.955367516958352e-01, 2.592266386278729e-01, 1.887529789812833e-02, 2.518448998093587e+00, 9.938080807716475e-01, 9.982635789977188e-01, 2.208431552677961e-01, -2.211399724411606e-01
47, 5.276100039480000e-01, -5.101897737545535e-02, 9.953382361927505e-01, 2.602839233031640e-01, 1.812719832064878e-02, 2.518025533631624e+00, 9.935311818282958e-01, 9.981844821200012e-01, 2.217470802433557e-01, -2.310292204180070e-01
48, 5.118399858470000e-01, -5.209138375948307e-02, 9.951427224199545e-01, 2.613556547016150e-01, 1.733305764717616e-02, 2.517610970669496e+00, 9.932559714736576e-01, 9.981040398489691e-01, 2.226627627158378e-01, -2.408581616550848e-01
49, 4.960500001910000e-01, -5.311153541819326e-02, 9.949418078905236e-01, 2.624187398995911e-01, 1.649167617151060e-02, 2.517182517688856e+00, 9.929755972199817e-01, 9.980237932963030e-01, 2.235726267437910e-01, -2.508715278577950e-01
50, 4.802699983120000e-01, -5.407492053959814e-02, 9.947435904257161e-01, 2.634959375069595e-01, 1.559815954161649e-02, 2.516762227649406e+00, 9.926965752818360e-01, 9.979421680485482e-01, 2.244944889450370e-01, -2.608365970772870e-01
51, 4.645099937920000e-01, -5.497835513414191e-02, 9.945406486110796e-01, 2.645669202763055e-01, 1.465167653375405e-02, 2.516329978735704e+00, 9.924128447248075e-01, 9.978605159183352e-01, 2.254130328794339e-01, -2.709698312568748e-01
52, 4.487800002100000e-01, -5.581859897363720e-02, 9.943385102623640e-01, 2.656444471519044e-01, 1.364756018640588e-02, 2.515900638650305e+00, 9.921290399391592e-01, 9.977779495610388e-01, 2.263382227117554e-01, -2.811057164585987e-01
53, 4.331099987030000e-01, -5.659141825851464e-02, 9.941334438895425e-01, 2.667149955923120e-01, 1.258303127516745e-02, 2.515463852188304e+00, 9.918423514397190e-01, 9.976953874111111e-01, 2.272597513568060e-01, -2.913445914386075e-01
54, 4.174999892710000e-01, -5.729416860686566e-02, 9.939290145152015e-01, 2.677861006093978e-01, 1.145343514913611e-02, 2.515029180598783e+00, 9.915557954500939e-01, 9.976122851527128e-01, 2.281837035507017e-01, -3.015787339252191e-01
55, 4.019699990750000e-01, -5.792324246601335e-02, 9.937241925175228e-01, 2.688586933763089e-01, 1.025664406587562e-02, 2.514594169779284e+00, 9.912681935451658e-01, 9.975284903086292e-01, 2.291117383616792e-01, -3.118502305297922e-01
56, 3.865399956700000e-01, -5.847520956655861e-02, 9.935187528890550e-01, 2.699174268095343e-01, 8.988320855430052e-03, 2.514157123780305e+00, 9.909804477969677e-01, 9.974451362043183e-01, 2.300313311175391e-01, -3.221268643940108e-01
57, 3.712300062180000e-01, -5.894684318665333e-02, 9.933143008066202e-01, 2.709692309690507e-01, 7.644114101997381e-03, 2.513722666571875e+00, 9.906935972485769e-01, 9.973616572761360e-01, 2.309487840359110e-01, -3.323715268365408e-01
58, 3.560400009160000e-01, -5.933561549045978e-02, 9.931103129819024e-01, 2.719987508497629e-01, 6.220933736715139e-03, 2.513288359539777e+00, 9.904082344016240e-01, 9.972791757925009e-01, 2.318518591015679e-01, -3.425630570848589e-01
59, 3.409900069240000e-01, -5.963847719943702e-02, 9.929060040407339e-01, 2.730174008235995e-01, 4.714913559197278e-03, 2.512853200013364e+00, 9.901225911750005e-01, 9.971967005392195e-01, 2.327515110340994e-01, -3.527646008928411e-01
60, 3.261100053790000e-01, -5.985254444802346e-02, 9.927071541280926e-01, 2.740160599327713e-01, 3.121186942773971e-03, 2.512431065532941e+00, 9.898431823879982e-01, 9.971149883143436e-01, 2.336395694629752e-01, -3.627434861429224e-01
61, 3.113999962810000e-01, -5.997565198183213e-02, 9.925045205647351e-01, 2.749874307298576e-01, 1.437926134546900e-03, 2.511998289160897e+00, 9.895610667447570e-01, 9.970343169638127e-01, 2.345131585727731e-01, -3.728190448301085e-01
62, 2.968699932100000e-01, -6.000550062925582e-02, 9.923131389186313e-01, 2.759393258190118e-01, -3.429283416153999e-04, 2.511593323476721e+00, 9.892908372105536e-01, 9.969542863139240e-01, 2.353767447094255e-01, -3.824700996230875e-01
63, 2.825500071050000e-01, -5.994005483718394e-02, 9.921143494995379e-01, 2.768490278206630e-01, -2.220678465378276e-03, 2.511167673082015e+00, 9.890151577355560e-01, 9.968761748426026e-01, 2.362167100422969e-01, -3.923157951587131e-01
64, 2.684499919410000e-01, -5.977765596976551e-02, 9.919314815324968e-01, 2.777330613344158e-01, -4.206765015235796e-03, 2.510781326637755e+00, 9.887563452397783e-01, 9.967990366755849e-01, 2.370434165043945e-01, -4.015590985793470e-01
65, 2.545700073240000e-01, -5.951657836311273e-02, 9.917401226164695e-01, 2.785611168449653e-01, -6.298044961931907e-03, 2.510370764248824e+00, 9.884917925832840e-01, 9.967246156940638e-01, 2.378383994246331e-01, -4.110074077398569e-01
66, 2.409400045870000e-01, -5.915585896897953e-02, 9.915675468713850e-01, 2.793564834442254e-01, -8.509474996789369e-03, 2.510006468789360e+00, 9.882472400856049e-01, 9.966514567804723e-01, 2.386174341877914e-01, -4.197414255141095e-01
67, 2.275699973110000e-01, -5.869456802648413e-02, 9.913864309553034e-01, 2.800817836547238e-01, -1.083652611193513e-02, 2.509617068718033e+00, 9.879976624431279e-01, 9.965817884869477e-01, 2.393570478401975e-01, -4.286549127454315e-01
68, 2.144699990750000e-01, -5.813197420944613e-02, 9.912263634067419e-01, 2.807619046246198e-01, -1.329545321490990e-02, 2.509279052109016e+00, 9.877709600457830e-01, 9.965140118458080e-01, 2.400744914612248e-01, -4.367514269363209e-01
69, 2.016600072380000e-01, -5.746811193675738e-02, 9.910585649259301e-01, 2.813560188505787e-01, -1.588415306888171e-02, 2.508917154962093e+00, 9.875408634268005e-01, 9.964505614263146e-01, 2.407442905846170e-01, -4.449691633285547e-01
70, 1.891400069000000e-01, -5.670228146432130e-02, 9.909139854959186e-01, 2.818903025285987e-01, -1.862051321496943e-02, 2.508611481050277e+00, 9.873364604651231e-01, 9.963896714718332e-01, 2.413853930735680e-01, -4.522692691027454e-01
71, 1.769299954180000e-01, -5.583513598033686e-02, 9.907632781294671e-01, 2.823202031154369e-01, -2.150360169160464e-02, 2.508285101842890e+00, 9.871311434210169e-01, 9.963340035015152e-01, 2.419700959067333e-01, -4.596020206779669e-01
72, 1.650400012730000e-01, -5.486709202536137e-02, 9.906378802452209e-01, 2.826771620702104e-01, -2.455424218362845e-02, 2.508019907776155e+00, 9.869539331827244e-01, 9.962812374370499e-01, 2.425230776204692e-01, -4.659309577598432e-01
73, 1.534900069240000e-01, -5.379977779145956e-02, 9.905089020787151e-01, 2.829068843783686e-01, -2.777216242079606e-02, 2.507739418161750e+00, 9.867793872574899e-01, 9.962347488110425e-01, 2.430092782545807e-01, -4.721647408039314e-01
74, 1.422899961470000e-01, -5.263443049277360e-02, 9.904067936366289e-01, 2.830466693471914e-01, -3.118431862704685e-02, 2.507523734020972e+00, 9.866348323524762e-01, 9.961915030183685e-01, 2.434607326742420e-01, -4.773274159829939e-01
75, 1.314399987460000e-01, -5.137133628795417e-02, 9.903052570837909e-01, 2.830224907784921e-01, -3.479212698848027e-02, 2.507301423636210e+00, 9.864989213201926e-01, 9.961564015374341e-01, 2.438265805536201e-01, -4.821813814216942e-01
76, 1.209499984980000e-01, -5.001187382363489e-02, 9.902314208344632e-01, 2.828670600499048e-01, -3.862850385083978e-02, 2.507144176853548e+00, 9.863956734231869e-01, 9.961264131489145e-01, 2.441387228248171e-01, -4.858688063147537e-01
77, 1.108499988910000e-01, -4.856066993422563e-02, 9.901640350709038e-01, 2.825166818459388e-01, -4.270234160298196e-02, 2.506994386710566e+00, 9.863077262428736e-01, 9.961053838642464e-01, 2.443573851244410e-01, -4.890097770402306e-01
78, 1.011300012470000e-01, -4.701715290498424e-02, 9.901248274758989e-01, 2.819780424085570e-01, -4.704635883582162e-02, 2.506908430794705e+00, 9.862553575681433e-01, 9.960919372988357e-01, 2.444971047606726e-01, -4.908800868520249e-01
79, 9.181000292300000e-02, -4.538527151431038e-02, 9.901039485573799e-01, 2.812002908187410e-01, -5.168382589068318e-02, 2.506858927842360e+00, 9.862311995754831e-01, 9.960885430387998e-01, 2.445323614793156e-01, -4.917428723041749e-01
80, 8.290000259900000e-02, -4.366791468532204e-02, 9.901110673895056e-01, 2.801319486695717e-01, -5.664888082428609e-02, 2.506867863256365e+00, 9.862473793562022e-01, 9.960977226085452e-01, 2.444370000653252e-01, -4.911650229927783e-01
81, 7.440000027400000e-02, -4.186607976498817e-02, 9.901515491886080e-01, 2.787318392033619e-01, -6.197842779472040e-02, 2.506947719162369e+00, 9.863103433066910e-01, 9.961205879190265e-01, 2.441993111994157e-01, -4.889163104753222e-01
82, 6.633000075800000e-02, -3.998513962421356e-02, 9.902274174062200e-01, 2.769162599835928e-01, -6.771435914125729e-02, 2.507099787552511e+00, 9.864259381812024e-01, 9.961610038682075e-01, 2.437786404691889e-01, -4.847879220999149e-01
83, 5.869000032500000e-02, -3.802635805630503e-02, 9.903570826906846e-01, 2.746069131323354e-01, -7.390607504858715e-02, 2.507367773858505e+00, 9.866154113948026e-01, 9.962218967670570e-01, 2.431435252165754e-01, -4.780210216141939e-01
