"PointID","x","y","Density","Momentum_x","Momentum_y","Energy","Pressure","Temperature","Mach","Pressure_Coefficient"
0, 9.997500181200000e-01, -3.632896519016437e-05, 1.004804586896882e+00, 6.992150016547227e-02, 8.595062733994522e-03, 2.517741756625055e+00, 1.006108870517583e+00, 1.001298047040897e+00, 5.921613662290164e-02, 8.726957882261620e-01
1, 9.990000128750000e-01, -1.452537504052920e-04, 1.002461784703028e+00, 8.331390383324623e-02, 1.161396840688429e-02, 2.512175828321423e+00, 1.003458588568482e+00, 1.000994355975125e+00, 7.088413462286372e-02, 4.940840812117021e-01
2, 9.977599978450000e-01, -3.251111630156300e-04, 1.002108654607463e+00, 9.106468595974063e-02, 1.300091882482950e-02, 2.511489134678761e+00, 1.002906854781639e+00, 1.000796520587369e+00, 7.754962063132639e-02, 4.152649688055543e-01
3, 9.960200190539999e-01, -5.769983605901485e-04, 1.001671312470840e+00, 9.499104182395178e-02, 1.366789134568317e-02, 2.510500842059742e+00, 1.002361388425161e+00, 1.000688924546136e+00, 8.094566425732652e-02, 3.373412035944579e-01
4, 9.937800168990000e-01, -9.004365425509819e-04, 1.001457085692398e+00, 9.758123272433214e-02, 1.403868962319916e-02, 2.510037103701165e+00, 1.002073833338391e+00, 1.000615850299333e+00, 8.317346643486179e-02, 2.962619054844217e-01
5, 9.910500049590000e-01, -1.293363843462116e-03, 1.001293540622396e+00, 9.962633182778088e-02, 1.429735963492750e-02, 2.509686236540603e+00, 1.001851147800342e+00, 1.000556886822221e+00, 8.492871427975790e-02, 2.644496857632082e-01
6, 9.878399968150000e-01, -1.753609743384430e-03, 1.001166541146550e+00, 1.013688244280989e-01, 1.449331313506795e-02, 2.509419066093443e+00, 1.001672931047426e+00, 1.000505799864522e+00, 8.642083416192280e-02, 2.389901496322456e-01
7, 9.841300249100000e-01, -2.283176811071472e-03, 1.001058180284993e+00, 1.029139048071250e-01, 1.464656969388404e-02, 2.509193464184434e+00, 1.001518511390688e+00, 1.000459844507303e+00, 8.774152336847676e-02, 2.169301986697356e-01
8, 9.799500107769999e-01, -2.876826092032643e-03, 1.000956809909016e+00, 1.042833580536730e-01, 1.476525372410093e-02, 2.508980682289792e+00, 1.001375787374349e+00, 1.000418576966743e+00, 8.891087669129973e-02, 1.965410534783592e-01
9, 9.752799868580000e-01, -3.536324145770189e-03, 1.000865356186270e+00, 1.055238859168318e-01, 1.485339640815457e-02, 2.508789257535306e+00, 1.001246483920134e+00, 1.000380798207779e+00, 8.996813067142674e-02, 1.780691314476891e-01
10, 9.701499938960000e-01, -4.256268552403566e-03, 1.000780122859174e+00, 1.066638391747289e-01, 1.491678062850174e-02, 2.508610683393698e+00, 1.001126144796198e+00, 1.000345752207823e+00, 9.093798808240992e-02, 1.608778280282688e-01
11, 9.645400047300000e-01, -5.038225493362627e-03, 1.000700007008531e+00, 1.077226611203272e-01, 1.495890482438830e-02, 2.508442710890043e+00, 1.001013151015445e+00, 1.000312924957251e+00, 9.183721512954192e-02, 1.447358593492813e-01
12, 9.584699869160000e-01, -5.878077433056352e-03, 1.000624692976091e+00, 1.087156148911272e-01, 1.498184358799359e-02, 2.508284957127011e+00, 1.000906778502762e+00, 1.000281909419837e+00, 9.267885265820171e-02, 1.295397861088407e-01
13, 9.519400000570000e-01, -6.774428848839826e-03, 1.000552731724436e+00, 1.096504359333495e-01, 1.498757912548710e-02, 2.508133988192239e+00, 1.000805379357819e+00, 1.000252508064165e+00, 9.346973848017529e-02, 1.150541939740941e-01
14, 9.449599981310000e-01, -7.724467125531491e-03, 1.000484328419561e+00, 1.105367421730970e-01, 1.497744712081569e-02, 2.507990579690042e+00, 1.000708897504242e+00, 1.000224460372144e+00, 9.421806688541583e-02, 1.012710720345669e-01
15, 9.375399947170000e-01, -8.725349486403867e-03, 1.000418913195920e+00, 1.113800616674609e-01, 1.495277642164540e-02, 2.507853449357586e+00, 1.000616616667650e+00, 1.000197620685817e+00, 9.492868044247121e-02, 8.808809537863564e-02
16, 9.296900033950000e-01, -9.774221272349531e-03, 1.000355856106009e+00, 1.121856919195707e-01, 1.491476710217979e-02, 2.507721163969545e+00, 1.000527760880386e+00, 1.000171843622776e+00, 9.560622328296890e-02, 7.539441148377413e-02
17, 9.214000105860000e-01, -1.087086069705918e-02, 1.000294985916148e+00, 1.129568576540577e-01, 1.486436772421890e-02, 2.507593376975076e+00, 1.000442076135718e+00, 1.000147046842822e+00, 9.625353151769683e-02, 6.315373367393742e-02
18, 9.126999974250000e-01, -1.200973104171110e-02, 1.000236007994686e+00, 1.136980079726069e-01, 1.480224896938358e-02, 2.507469475629382e+00, 1.000359141915477e+00, 1.000123104867059e+00, 9.687445147136764e-02, 5.130598792527485e-02
19, 9.035800099370001e-01, -1.319055953446835e-02, 1.000178854332058e+00, 1.144120996389192e-01, 1.472939864621178e-02, 2.507349371759950e+00, 1.000278807879121e+00, 1.000099935673135e+00, 9.747159183905034e-02, 3.982969701724469e-02
20, 8.940600156780000e-01, -1.440916392228702e-02, 1.000123256769926e+00, 1.151031188320582e-01, 1.464655776624214e-02, 2.507232512199158e+00, 1.000200686802240e+00, 1.000077420489714e+00, 9.804841867177191e-02, 2.866954317707180e-02
21, 8.841500282290000e-01, -1.566269158090452e-02, 1.000069417657896e+00, 1.157717891849036e-01, 1.455409950577031e-02, 2.507119415732246e+00, 1.000124969506374e+00, 1.000055547992467e+00, 9.860557363395810e-02, 1.785278662490089e-02
22, 8.738499879840000e-01, -1.694956337677533e-02, 1.000016387494968e+00, 1.164199436812354e-01, 1.445277790866533e-02, 2.507007757547019e+00, 1.000050650909398e+00, 1.000034262852948e+00, 9.914478414109186e-02, 7.235844199783771e-03
23, 8.631799817090000e-01, -1.826569132102762e-02, 9.999649691089129e-01, 1.170509778906146e-01, 1.434302955305730e-02, 2.506899651698349e+00, 9.999784324590485e-01, 1.000013463821785e+00, 9.966888413555966e-02, -3.081077278786562e-03
24, 8.521599769590000e-01, -1.960709133914372e-02, 9.999143936582491e-01, 1.176649287718679e-01, 1.422507685579145e-02, 2.506793167311533e+00, 9.999075487400295e-01, 9.999931544957621e-01, 1.001780195913289e-01, -1.320732285292615e-02
25, 8.407700061800000e-01, -2.097463226217677e-02, 9.998648356883526e-01, 1.182661123682843e-01, 1.409974565185745e-02, 2.506688882154152e+00, 9.998380340979593e-01, 9.999731947864987e-01, 1.006759018448397e-01, -2.313798600580723e-02
26, 8.290500044819999e-01, -2.236196298315981e-02, 9.998163260980938e-01, 1.188544306738288e-01, 1.396681554905307e-02, 2.506586863465031e+00, 9.997699296686549e-01, 9.999535950471825e-01, 1.011624397077538e-01, -3.286719019216353e-02
27, 8.170099854470000e-01, -2.376642068849115e-02, 9.997681120537313e-01, 1.194328970852210e-01, 1.382724881683560e-02, 2.506485327859616e+00, 9.997023786380943e-01, 9.999342513380410e-01, 1.016403570244185e-01, -4.251733741509970e-02
28, 8.046399950980000e-01, -2.518763605296113e-02, 9.997202571742639e-01, 1.200000130557939e-01, 1.368055901241290e-02, 2.506384377146329e+00, 9.996355023337866e-01, 9.999152214433298e-01, 1.021083564402020e-01, -5.207109517334022e-02
29, 7.919700145720000e-01, -2.662062628442961e-02, 9.996731409671678e-01, 1.205613053304354e-01, 1.352706331695959e-02, 2.506285148149966e+00, 9.995694948455175e-01, 9.998963199896022e-01, 1.025711009598365e-01, -6.150073635464400e-02
30, 7.790099978450000e-01, -2.806276676215449e-02, 9.996262325699194e-01, 1.211130221005554e-01, 1.336631507672393e-02, 2.506186178635582e+00, 9.995039566723447e-01, 9.998776783825889e-01, 1.030254652502731e-01, -7.086333252218480e-02
31, 7.657799720760000e-01, -2.951033727360171e-02, 9.995815227422391e-01, 1.216584894850001e-01, 1.319731419182836e-02, 2.506092559476295e+00, 9.994407784968737e-01, 9.998591968317111e-01, 1.034739752646082e-01, -7.988878616089454e-02
32, 7.522799968720000e-01, -3.096181144522562e-02, 9.995354557463368e-01, 1.221968376024404e-01, 1.302136041669859e-02, 2.505995363828464e+00, 9.993764172154324e-01, 9.998408875543234e-01, 1.039164119696236e-01, -8.908325493823496e-02
33, 7.385200262070000e-01, -3.241453277608040e-02, 9.994909289319571e-01, 1.227306371125006e-01, 1.283698421813102e-02, 2.505901925852362e+00, 9.993136996754549e-01, 9.998226804752581e-01, 1.043545349014054e-01, -9.804290350644090e-02
34, 7.245299816130000e-01, -3.386376679305321e-02, 9.994450822632607e-01, 1.232640023537036e-01, 1.264543699938893e-02, 2.505805236121293e+00, 9.992496051991044e-01, 9.998044144019266e-01, 1.047922529982421e-01, -1.071992572707943e-01
35, 7.103199958800001e-01, -3.530689307158652e-02, 9.994004132785865e-01, 1.237940082357609e-01, 1.244473333255441e-02, 2.505711435896874e+00, 9.991867513726630e-01, 9.997862099083765e-01, 1.052266997769031e-01, -1.161783753338578e-01
36, 6.958900094030001e-01, -3.674225211597043e-02, 9.993551562743822e-01, 1.243239645717686e-01, 1.223522516045054e-02, 2.505616224863265e+00, 9.991232461608340e-01, 9.997679402441746e-01, 1.056609216751256e-01, -1.252505484522810e-01
37, 6.812700033190000e-01, -3.816515293304169e-02, 9.993103675968085e-01, 1.248497021740496e-01, 1.201501306718992e-02, 2.505522093022286e+00, 9.990603041440994e-01, 9.997497639764209e-01, 1.060911755982083e-01, -1.342422651286559e-01
38, 6.664699912070000e-01, -3.957289370556494e-02, 9.992650735150335e-01, 1.253783802615615e-01, 1.178477519838816e-02, 2.505426862411717e+00, 9.989966884337795e-01, 9.997314175303760e-01, 1.065237112581537e-01, -1.433302237457809e-01
39, 6.514999866490000e-01, -4.096270419333766e-02, 9.992196063105463e-01, 1.259032591790164e-01, 1.154248982124751e-02, 2.505331118696509e+00, 9.989329786847123e-01, 9.997131485170792e-01, 1.069526988554158e-01, -1.524316164696695e-01
40, 6.363800168040000e-01, -4.233084266562091e-02, 9.991741945068472e-01, 1.264344787616029e-01, 1.128834714412403e-02, 2.505235801798423e+00, 9.988690364216858e-01, 9.996945897053399e-01, 1.073867527547112e-01, -1.615662254734593e-01
41, 6.211299896240000e-01, -4.367359094194759e-02, 9.991280715529740e-01, 1.269615973594863e-01, 1.102034160625113e-02, 2.505138613353585e+00, 9.988044716983956e-01, 9.996761177432687e-01, 1.078170561343744e-01, -1.707897573720586e-01
42, 6.057599782940000e-01, -4.498807223669178e-02, 9.990821560409915e-01, 1.274967148154416e-01, 1.073835359466490e-02, 2.505042294429914e+00, 9.987397649517158e-01, 9.996572943604235e-01, 1.082538025463591e-01, -1.800335783263156e-01
43, 5.902799963950000e-01, -4.627132533375768e-02, 9.990352932441597e-01, 1.280279803555486e-01, 1.044027026335453e-02, 2.504943522009998e+00, 9.986741895666664e-01, 9.996385476269607e-01, 1.086870424311428e-01, -1.894014904762250e-01
44, 5.747100114820000e-01, -4.751950934859488e-02, 9.989887567127942e-01, 1.285684377495421e-01, 1.012566556500441e-02, 2.504845964086150e+00, 9.986085438966568e-01, 9.996194023070007e-01, 1.091277351558579e-01, -1.987794433347481e-01
45, 5.590599775310000e-01, -4.872955796694115e-02, 9.989409912530810e-01, 1.291047680704228e-01, 9.792553004653589e-03, 2.504745239979045e+00, 9.985417545501004e-01, 9.996003400536406e-01, 1.095647714297699e-01, -2.083207785570839e-01
46, 5.433599948880000e-01, -4.989683951066199e-02, 9.988940758040716e-01, 1.296506702578773e-01, 9.439998899862263e-03, 2.504647061316930e+00, 9.984754007410329e-01, 9.995808614014440e-01, 1.100095779528825e-01, -2.177998941381551e-01
47, 5.276100039480000e-01, -5.101897737545535e-02, 9.988449800189043e-01, 1.301915349957894e-01, 9.066716280910787e-03, 2.504543307414199e+00, 9.984069757207336e-01, 9.995614892131087e-01, 1.104501936757816e-01, -2.275748970380632e-01
48, 5.118399858470000e-01, -5.209138375948307e-02, 9.987975985839030e-01, 1.307400686471416e-01, 8.670393877064187e-03, 2.504444198751754e+00, 9.983399176750456e-01, 9.995417681124723e-01, 1.108969644549461e-01, -2.371546178506292e-01
49, 4.960500001910000e-01, -5.311153541819326e-02, 9.987480725910634e-01, 1.312829214275618e-01, 8.250239112114803e-03, 2.504339586453008e+00, 9.982708422815788e-01, 9.995221714838995e-01, 1.113391568270570e-01, -2.470225312030276e-01
50, 4.802699983120000e-01, -5.407492053959814e-02, 9.987004471952654e-01, 1.318327047258634e-01, 7.803801557675776e-03, 2.504240069739152e+00, 9.982033366881879e-01, 9.995022426309378e-01, 1.117870694720394e-01, -2.566661874017219e-01
51, 4.645099937920000e-01, -5.497835513414191e-02, 9.986503548926441e-01, 1.323789446863380e-01, 7.330824829875318e-03, 2.504134335062736e+00, 9.981333976225011e-01, 9.994823440780749e-01, 1.122325353801702e-01, -2.666574824998453e-01
52, 4.487800002100000e-01, -5.581859897363720e-02, 9.986016276635030e-01, 1.329301799869640e-01, 6.828806806809696e-03, 2.504032300915595e+00, 9.980645453460155e-01, 9.994621655897518e-01, 1.126824878190278e-01, -2.764935219977831e-01
53, 4.331099987030000e-01, -5.659141825851464e-02, 9.985507116903360e-01, 1.334774629079353e-01, 6.296991799943873e-03, 2.503924745793135e+00, 9.979935380981834e-01, 9.994420177306675e-01, 1.131299896543588e-01, -2.866374145452339e-01
54, 4.174999892710000e-01, -5.729416860686566e-02, 9.985012096111835e-01, 1.340222537401929e-01, 5.731904462251147e-03, 2.503820747193741e+00, 9.979239328430530e-01, 9.994218567162727e-01, 1.135760366407052e-01, -2.965810224209959e-01
55, 4.019699990750000e-01, -5.792324246601335e-02, 9.984506932830509e-01, 1.345686752680285e-01, 5.133310259535191e-03, 2.503714402251329e+00, 9.978531169733723e-01, 9.994014964247123e-01, 1.140247399222592e-01, -3.066975752325271e-01
56, 3.865399956700000e-01, -5.847520956655861e-02, 9.984009535531867e-01, 1.351099123714484e-01, 4.498461187027958e-03, 2.503609943385275e+00, 9.977831385880744e-01, 9.993811955378114e-01, 1.144704011852354e-01, -3.166944874179378e-01
57, 3.712300062180000e-01, -5.894684318665333e-02, 9.983507326301860e-01, 1.356518618167416e-01, 3.826156567125622e-03, 2.503504468022048e+00, 9.977124891522320e-01, 9.993607021489609e-01, 1.149185536926284e-01, -3.267872639668594e-01
58, 3.560400009160000e-01, -5.933561549045978e-02, 9.983014446779426e-01, 1.361815021531289e-01, 3.113954646946090e-03, 2.503401027158339e+00, 9.976430771178730e-01, 9.993405122635262e-01, 1.153583843215809e-01, -3.367032688752810e-01
59, 3.409900069240000e-01, -5.963847719943702e-02, 9.982506956560204e-01, 1.367054963590525e-01, 2.360466516833748e-03, 2.503293908597960e+00, 9.975722187841188e-01, 9.993203341857372e-01, 1.157963060986786e-01, -3.468258879830236e-01
60, 3.261100053790000e-01, -5.985254444802346e-02, 9.982031879315159e-01, 1.372169438803863e-01, 1.562392079721033e-03, 2.503194630844919e+00, 9.975048868767158e-01, 9.993004419708909e-01, 1.162264259442362e-01, -3.564447318977443e-01
61, 3.113999962810000e-01, -5.997565198183213e-02, 9.981521894473130e-01, 1.377164175034684e-01, 7.197506620785981e-04, 2.503086395800126e+00, 9.974342701693008e-01, 9.992807516873660e-01, 1.166506344504904e-01, -3.665328329570356e-01
62, 2.968699932100000e-01, -6.000550062925582e-02, 9.981073700264635e-01, 1.382045342499849e-01, -1.724403117153346e-04, 2.502993451827752e+00, 9.973700323722945e-01, 9.992612641922989e-01, 1.170689769755741e-01, -3.757096611007872e-01
63, 2.825500071050000e-01, -5.994005483718394e-02, 9.980568435030869e-01, 1.386740964760290e-01, -1.112804445660643e-03, 2.502885803497553e+00, 9.973004841166321e-01, 9.992421680274244e-01, 1.174774892990731e-01, -3.856451261954173e-01
64, 2.684499919410000e-01, -5.977765596976551e-02, 9.980144916422270e-01, 1.391292597193456e-01, -2.108161942689195e-03, 2.502798387400708e+00, 9.972393721706602e-01, 9.992233384604555e-01, 1.178789274387491e-01, -3.943754041914051e-01
65, 2.545700073240000e-01, -5.951657836311273e-02, 9.979655675335258e-01, 1.395589680333056e-01, -3.155849695061837e-03, 2.502693900468982e+00, 9.971722821740475e-01, 9.992050974649971e-01, 1.182665324128119e-01, -4.039596894217831e-01
66, 2.409400045870000e-01, -5.915585896897953e-02, 9.979260055683437e-01, 1.399700609321873e-01, -4.264482862192347e-03, 2.502612536100281e+00, 9.971149026558672e-01, 9.991872113684279e-01, 1.186453801909319e-01, -4.121567634475403e-01
67, 2.275699973110000e-01, -5.869456802648413e-02, 9.978794350901551e-01, 1.403487212206399e-01, -5.430776435618227e-03, 2.502512822674031e+00, 9.970512933280871e-01, 9.991700983776732e-01, 1.190067363507291e-01, -4.212438102732770e-01
68, 2.144699990750000e-01, -5.813197420944613e-02, 9.978428812548118e-01, 1.407023675052570e-01, -6.663792069743010e-03, 2.502437723366617e+00, 9.969981982510498e-01, 9.991534909757542e-01, 1.193563822753567e-01, -4.288288212785931e-01
69, 2.016600072380000e-01, -5.746811193675738e-02, 9.977997500026118e-01, 1.410144632195732e-01, -7.961756400864764e-03, 2.502345108271864e+00, 9.969395519477207e-01, 9.991379051208534e-01, 1.196836022652300e-01, -4.372068646113346e-01
70, 1.891400069000000e-01, -5.670228146432130e-02, 9.977664006733837e-01, 1.412944388662349e-01, -9.333933559492396e-03, 2.502276378231448e+00, 9.968913257991801e-01, 9.991229661836549e-01, 1.199964124215560e-01, -4.440963144028501e-01
71, 1.769299954180000e-01, -5.583513598033686e-02, 9.977278082226324e-01, 1.415212407174025e-01, -1.077985813767815e-02, 2.502193163469717e+00, 9.968391967383726e-01, 9.991093648218119e-01, 1.202805153000031e-01, -4.515433230896254e-01
72, 1.650400012730000e-01, -5.486709202536137e-02, 9.976988169202619e-01, 1.417089149216723e-01, -1.230960933787074e-02, 2.502133292604674e+00, 9.967973950126572e-01, 9.990964989711154e-01, 1.205486457718210e-01, -4.575149981918311e-01
73, 1.534900069240000e-01, -5.379977779145956e-02, 9.976656496311610e-01, 1.418291449769650e-01, -1.392319308502492e-02, 2.502061247278278e+00, 9.967531225583038e-01, 9.990853377850643e-01, 1.207807735730904e-01, -4.638396345280232e-01
74, 1.422899961470000e-01, -5.263443049277360e-02, 9.976423776164204e-01, 1.419029336120442e-01, -1.563437353047293e-02, 2.502013259164532e+00, 9.967194956326596e-01, 9.990749370671628e-01, 1.209966891407406e-01, -4.686434810486285e-01
75, 1.314399987460000e-01, -5.137133628795417e-02, 9.976160077025441e-01, 1.418958977593133e-01, -1.744380111835158e-02, 2.501955564483072e+00, 9.966847109497275e-01, 9.990664777372998e-01, 1.211720216965155e-01, -4.736127214674933e-01
76, 1.209499984980000e-01, -5.001187382363489e-02, 9.975998642747972e-01, 1.418218169156701e-01, -1.936779626913989e-02, 2.501922304951413e+00, 9.966613554061694e-01, 9.990592331632785e-01, 1.213219774268424e-01, -4.769492276900856e-01
77, 1.108499988910000e-01, -4.856066993422563e-02, 9.975819455143025e-01, 1.416488605836392e-01, -2.141042140711964e-02, 2.501882378184276e+00, 9.966384409937766e-01, 9.990542085041051e-01, 1.214258753921910e-01, -4.802227151747672e-01
78, 1.011300012470000e-01, -4.701715290498424e-02, 9.975730929877437e-01, 1.413757047304734e-01, -2.358784080099753e-02, 2.501863188710914e+00, 9.966265845801904e-01, 9.990511889161743e-01, 1.214882708719801e-01, -4.819164885442320e-01
79, 9.181000292300000e-02, -4.538527151431038e-02, 9.975672685496972e-01, 1.409817222315134e-01, -2.591211865988362e-02, 2.501849160927394e+00, 9.966201860070208e-01, 9.990506078411604e-01, 1.215002741256164e-01, -4.828305704255935e-01
80, 8.290000259900000e-02, -4.366791468532204e-02, 9.975687923319154e-01, 1.404409010877139e-01, -2.840034092733788e-02, 2.501850530708511e+00, 9.966241600931335e-01, 9.990530655669636e-01, 1.214494955313324e-01, -4.822628438380742e-01
81, 7.440000027400000e-02, -4.186607976498817e-02, 9.975782023022189e-01, 1.397326111258969e-01, -3.107028133638853e-02, 2.501868395311731e+00, 9.966392962309788e-01, 9.990588145680478e-01, 1.213306348528658e-01, -4.801005384316003e-01
82, 6.633000075800000e-02, -3.998513962421356e-02, 9.975952774323850e-01, 1.388088692384089e-01, -3.394159891037062e-02, 2.501901003854456e+00, 9.966665701498787e-01, 9.990690540507605e-01, 1.211186480489906e-01, -4.762042643030439e-01
83, 5.869000032500000e-02, -3.802635805630503e-02, 9.976260970435301e-01, 1.376268715754913e-01, -3.703753021028183e-02, 2.501962794571087e+00, 9.967128638078284e-01, 9.990845936785255e-01, 1.207962307400177e-01, -4.695908845959402e-01
