"PointID","x","y","Density","Momentum_x","Momentum_y","Energy","Pressure","Temperature","Mach","Pressure_Coefficient"
0, 9.997500181200000e-01, -3.632896574592246e-05, 1.014056167324446e+00, 1.529833155147485e-01, 1.932279311937797e-02, 2.558773708640535e+00, 1.018819947328732e+00, 1.004697747676892e+00, 1.282145190553039e-01, 6.721409760261446e-01
1, 9.990000128750000e-01, -1.452537854904942e-04, 1.008921270829837e+00, 1.741018814401117e-01, 2.453711019480870e-02, 2.546861257856059e+00, 1.012616466041516e+00, 1.003662520871069e+00, 1.470141660737155e-01, 4.505880729112939e-01
2, 9.977599978450000e-01, -3.251115477089107e-04, 1.007679054576270e+00, 1.854917331615164e-01, 2.661213435463543e-02, 2.544331955901348e+00, 1.010763224224603e+00, 1.003060666622301e+00, 1.569274402804238e-01, 3.844008651643916e-01
3, 9.960200190539999e-01, -5.770004367593505e-04, 1.006530796596977e+00, 1.917526389203289e-01, 2.761393418395451e-02, 2.541786955914843e+00, 1.009257165764256e+00, 1.002708679333505e+00, 1.624501399123288e-01, 3.306130630091331e-01
4, 9.937800168990000e-01, -9.004440382215399e-04, 1.005817364405499e+00, 1.964548135720743e-01, 2.826450473884282e-02, 2.540257312493778e+00, 1.008269817835545e+00, 1.002438269129998e+00, 1.665710927600195e-01, 2.953506369837552e-01
5, 9.910500049590000e-01, -1.293384536708934e-03, 1.005247345236170e+00, 2.003816939495876e-01, 2.875530953857019e-02, 2.539049468843918e+00, 1.007466631741441e+00, 1.002207701931060e+00, 1.700076716625593e-01, 2.666654193371675e-01
6, 9.878399968150000e-01, -1.753656705922616e-03, 1.004761232781060e+00, 2.037241246731434e-01, 2.912908131777036e-02, 2.538022399934232e+00, 1.006778693962129e+00, 1.002007901096547e+00, 1.729317019042585e-01, 2.420962129331644e-01
7, 9.841300249100000e-01, -2.283268701030909e-03, 1.004333634877926e+00, 2.066668616975168e-01, 2.941530929548538e-02, 2.537121579536659e+00, 1.006170947301957e+00, 1.001829384539386e+00, 1.755040028393242e-01, 2.203909750699047e-01
8, 9.799500107769999e-01, -2.876984522277481e-03, 1.003936905395443e+00, 2.092759204454606e-01, 2.963393827873601e-02, 2.536280529893211e+00, 1.005612333700771e+00, 1.001668858168600e+00, 1.777860666267810e-01, 2.004404893132330e-01
9, 9.752799868580000e-01, -3.536570198488602e-03, 1.003575419517850e+00, 2.116529168989922e-01, 2.979512833486050e-02, 2.535515663811504e+00, 1.005101876155182e+00, 1.001521018358606e+00, 1.798628016703016e-01, 1.822098626850867e-01
10, 9.701499938960000e-01, -4.256616907963382e-03, 1.003237974699690e+00, 2.138412622303243e-01, 2.990878237623169e-02, 2.534801044479477e+00, 1.004625988778686e+00, 1.001383534230162e+00, 1.817733191130335e-01, 1.652138849530606e-01
11, 9.645400047300000e-01, -5.038681439052033e-03, 1.002920666732037e+00, 2.158740170773296e-01, 2.998049606879810e-02, 2.534128562853997e+00, 1.004179006640460e+00, 1.001254675419665e+00, 1.835463929297629e-01, 1.492502371592740e-01
12, 9.584699869160000e-01, -5.878634942388199e-03, 1.002621218426345e+00, 2.177798409546664e-01, 3.001440919033519e-02, 2.533494021065847e+00, 1.003757093544530e+00, 1.001132905525346e+00, 1.852067391103973e-01, 1.341819123046318e-01
13, 9.519400000570000e-01, -6.775073126744369e-03, 1.002336170492808e+00, 2.195731305425210e-01, 3.001430361584907e-02, 2.532889438616351e+00, 1.003356025717137e+00, 1.001017478221731e+00, 1.867673449757080e-01, 1.198580613263374e-01
14, 9.449599981310000e-01, -7.725178875240819e-03, 1.002064654096141e+00, 2.212721084820280e-01, 2.998308768842186e-02, 2.532313623731679e+00, 1.002973929631034e+00, 1.000907402063506e+00, 1.882438814664960e-01, 1.062117725369143e-01
15, 9.375399947170000e-01, -8.726109652340726e-03, 1.001804712300261e+00, 2.228866816915427e-01, 2.992344259833591e-02, 2.531762166677642e+00, 1.002608310990802e+00, 1.000802151038696e+00, 1.896452443206615e-01, 9.315396395722814e-02
16, 9.296900033950000e-01, -9.775014200641672e-03, 1.001554986500278e+00, 2.244267988347316e-01, 2.983739093447218e-02, 2.531232185241585e+00, 1.002257258753718e+00, 1.000701181925012e+00, 1.909802060219174e-01, 8.061638406135577e-02
17, 9.214000105860000e-01, -1.087167491609583e-02, 1.001313869621154e+00, 2.259008794631836e-01, 2.972726469190609e-02, 2.530720101579608e+00, 1.001918681096667e+00, 1.000604017874777e+00, 1.922563591838701e-01, 6.852432488096180e-02
18, 9.126999974250000e-01, -1.201055778202881e-02, 1.001081114958958e+00, 2.273187262902018e-01, 2.959430726460213e-02, 2.530225855997228e+00, 1.001591767296548e+00, 1.000510100859919e+00, 1.934820993200586e-01, 5.684883201955467e-02
19, 9.035800099370001e-01, -1.319139033937139e-02, 1.000855593479013e+00, 2.286844672759056e-01, 2.944065569015551e-02, 2.529746829080842e+00, 1.001275153540329e+00, 1.000419201395337e+00, 1.946613235753191e-01, 4.554119786890989e-02
20, 8.940600156780000e-01, -1.440998805244900e-02, 1.000636709077613e+00, 2.300028146643128e-01, 2.926682431812374e-02, 2.529281774723763e+00, 1.000967982802943e+00, 1.000331062934554e+00, 1.957981507417936e-01, 3.457081439080444e-02
21, 8.841500282290000e-01, -1.566349413263757e-02, 1.000424611150389e+00, 2.312779910966880e-01, 2.907384764912445e-02, 2.528831301748685e+00, 1.000670173416680e+00, 1.000245458042070e+00, 1.968962063568949e-01, 2.393476488143920e-02
22, 8.738499879840000e-01, -1.695032423177773e-02, 1.000216692156534e+00, 2.325146070091497e-01, 2.886379194608995e-02, 2.528389135487450e+00, 1.000378800601432e+00, 1.000162073324880e+00, 1.979601071759902e-01, 1.352859290827085e-02
23, 8.631799817090000e-01, -1.826638501234948e-02, 1.000015185232336e+00, 2.337181923999867e-01, 2.863702902548028e-02, 2.527961217895597e+00, 1.000095800964490e+00, 1.000080614508005e+00, 1.989941132355832e-01, 3.421463017500809e-03
24, 8.521599769590000e-01, -1.960768751843075e-02, 9.998172912348104e-01, 2.348880922044471e-01, 2.839420758002259e-02, 2.527540445233170e+00, 9.998184027848600e-01, 1.000001111753177e+00, 1.999982960870448e-01, -6.485614826428384e-03
25, 8.407700061800000e-01, -2.097509599000216e-02, 9.996239324863345e-01, 2.360321930950710e-01, 2.813662576074158e-02, 2.527129644378353e+00, 9.995470331967845e-01, 9.999230717802459e-01, 2.009792774086664e-01, -1.617738582912476e-02
26, 8.290500044819999e-01, -2.236225618174383e-02, 9.994340865394356e-01, 2.371501046735870e-01, 2.786435004340177e-02, 2.526726197202502e+00, 9.992807031053001e-01, 9.998465297149647e-01, 2.019369482529110e-01, -2.568917481070894e-02
27, 8.170099854470000e-01, -2.376650281994303e-02, 9.992472746355772e-01, 2.382450937605932e-01, 2.757819279117968e-02, 2.526329106802002e+00, 9.990187203684032e-01, 9.997712735646369e-01, 2.028742647675784e-01, -3.504570112845631e-02
28, 8.046399950980000e-01, -2.518746460071468e-02, 9.990624326282349e-01, 2.393187957969147e-01, 2.727809395524062e-02, 2.525935792267504e+00, 9.987599115331769e-01, 9.996971950048588e-01, 2.037928407810579e-01, -4.428887381511102e-02
29, 7.919700145720000e-01, -2.662015845605070e-02, 9.988805791619219e-01, 2.403783416047814e-01, 2.696476513690702e-02, 2.525549290759975e+00, 9.985048332855125e-01, 9.996238330344511e-01, 2.046986020412722e-01, -5.339881123169506e-02
30, 7.790099978450000e-01, -2.806196014066351e-02, 9.987006372748186e-01, 2.414144150590233e-01, 2.663621042498080e-02, 2.525166228411358e+00, 9.982530599312631e-01, 9.995518403344805e-01, 2.055837064947761e-01, -6.239071674060286e-02
31, 7.657799720760000e-01, -2.950915112481939e-02, 9.985251242650923e-01, 2.424399651949121e-01, 2.629209803836091e-02, 2.524793805431698e+00, 9.980062723307207e-01, 9.994803816931965e-01, 2.064586180565643e-01, -7.120455961711784e-02
32, 7.522799968720000e-01, -3.096020720212907e-02, 9.983489264334626e-01, 2.434514768226780e-01, 2.593415198941972e-02, 2.524418941190680e+00, 9.977595099136745e-01, 9.994096087007438e-01, 2.073216180761948e-01, -8.001750308305508e-02
33, 7.385200262070000e-01, -3.241247533979789e-02, 9.981752482950682e-01, 2.444566074207570e-01, 2.556044305168041e-02, 2.524050196866876e+00, 9.975155170951060e-01, 9.993390627536709e-01, 2.081784101911641e-01, -8.873153231764298e-02
34, 7.245299816130000e-01, -3.386122629758013e-02, 9.980009980654703e-01, 2.454566456491844e-01, 2.517220673851910e-02, 2.523679906494776e+00, 9.972710519768885e-01, 9.992685918250619e-01, 2.090309049491270e-01, -9.746242939684008e-02
35, 7.103199958800001e-01, -3.530384529688486e-02, 9.978278417613932e-01, 2.464443796725368e-01, 2.476580513993286e-02, 2.523311719606180e+00, 9.970283427599138e-01, 9.991987605797130e-01, 2.098723635501928e-01, -1.061306157173639e-01
36, 6.958900094030001e-01, -3.673867908443040e-02, 9.976550524449262e-01, 2.474300557505754e-01, 2.434141456837876e-02, 2.522944533354069e+00, 9.967859276291384e-01, 9.991288323417422e-01, 2.107117407583928e-01, -1.147882989593420e-01
37, 6.812700033190000e-01, -3.816104493081713e-02, 9.974822454739511e-01, 2.484088298689456e-01, 2.389680301029439e-02, 2.522577026732218e+00, 9.965437706009844e-01, 9.990591563135837e-01, 2.115448943277305e-01, -1.234367642505563e-01
38, 6.664699912070000e-01, -3.956824941259938e-02, 9.973096222008041e-01, 2.493915378251254e-01, 2.343221874354696e-02, 2.522210482937103e+00, 9.963012988324474e-01, 9.989889565427722e-01, 2.123811220958107e-01, -1.320964702697341e-01
39, 6.514999866490000e-01, -4.095753144487734e-02, 9.971356401487111e-01, 2.503668147959222e-01, 2.294438825257082e-02, 2.521840203620077e+00, 9.960577688176820e-01, 9.989190323887449e-01, 2.132109224419940e-01, -1.407939707970699e-01
40, 6.363800168040000e-01, -4.232515946361176e-02, 9.969624043549336e-01, 2.513508822605425e-01, 2.243295391521957e-02, 2.521472643986018e+00, 9.958141519096293e-01, 9.988482490008769e-01, 2.140477606373130e-01, -1.494945746560966e-01
41, 6.211299896240000e-01, -4.366742595028229e-02, 9.967867420399591e-01, 2.523267865013309e-01, 2.189462673968605e-02, 2.521098609133592e+00, 9.955684494556453e-01, 9.987777801078892e-01, 2.148777605415906e-01, -1.582696622983834e-01
42, 6.057599782940000e-01, -4.498146485929962e-02, 9.966120334720869e-01, 2.533141190981865e-01, 2.132850886695762e-02, 2.520728009058293e+00, 9.953226770443557e-01, 9.987062604258961e-01, 2.157169906572173e-01, -1.670472484158668e-01
43, 5.902799963950000e-01, -4.626432604679213e-02, 9.964341771884165e-01, 2.542936713489243e-01, 2.073114669727337e-02, 2.520349148880240e+00, 9.950740595914090e-01, 9.986350151087299e-01, 2.165498864684123e-01, -1.759264431639628e-01
44, 5.747100114820000e-01, -4.751218012317759e-02, 9.962574454634412e-01, 2.552866634891935e-01, 2.010102551765218e-02, 2.519974309202710e+00, 9.948253890844573e-01, 9.985625639381620e-01, 2.173937280254190e-01, -1.848075326979544e-01
45, 5.590599775310000e-01, -4.872197205951505e-02, 9.960770672369974e-01, 2.562709292465488e-01, 1.943487233870517e-02, 2.519589894241472e+00, 9.945734290003035e-01, 9.984904398603769e-01, 2.182306400463493e-01, -1.938061071320163e-01
46, 5.433599948880000e-01, -4.988908161433654e-02, 9.958984315209256e-01, 2.572691235712026e-01, 1.873048535657316e-02, 2.519211106715054e+00, 9.943219890624786e-01, 9.984170650253568e-01, 2.190789081944126e-01, -2.027861049114788e-01
47, 5.276100039480000e-01, -5.101114293914597e-02, 9.957148912374792e-01, 2.582558992475347e-01, 1.798532627433503e-02, 2.518819404073534e+00, 9.940661609147641e-01, 9.983441742840002e-01, 2.199184630189427e-01, -2.119228244727117e-01
48, 5.118399858470000e-01, -5.208357880823797e-02, 9.955347932464151e-01, 2.592546763632594e-01, 1.719495297718091e-02, 2.518437476976308e+00, 9.938127016405955e-01, 9.982701844099253e-01, 2.207675370181835e-01, -2.209749414073021e-01
49, 4.960500001910000e-01, -5.310387596609019e-02, 9.953498786223479e-01, 2.602424025825552e-01, 1.635817049014112e-02, 2.518042907101468e+00, 9.935548920543917e-01, 9.981966275311749e-01, 2.216085416128989e-01, -2.301824266288666e-01
50, 4.802699983120000e-01, -5.406753173549669e-02, 9.951682377728830e-01, 2.612416627628742e-01, 1.547020081459138e-02, 2.517657699813881e+00, 9.932992697722813e-01, 9.981219577457736e-01, 2.224591446685975e-01, -2.393117938470952e-01
51, 4.645099937920000e-01, -5.497137054778545e-02, 9.949824866341667e-01, 2.622318554294776e-01, 1.453021470872616e-02, 2.517261814899275e+00, 9.930398240005197e-01, 9.980475408766054e-01, 2.233037688950560e-01, -2.485777142671532e-01
52, 4.487800002100000e-01, -5.581215981488272e-02, 9.947983317974419e-01, 2.632259887887216e-01, 1.353361853305151e-02, 2.516870576413996e+00, 9.927813635567088e-01, 9.979724853005246e-01, 2.241525455658415e-01, -2.578084444032586e-01
53, 4.331099987030000e-01, -5.658567151819429e-02, 9.946118637940611e-01, 2.642100361856138e-01, 1.247780119432309e-02, 2.516473150007517e+00, 9.925209301769438e-01, 9.978977391148935e-01, 2.249947674782676e-01, -2.671096365377229e-01
54, 4.174999892710000e-01, -5.728926704566118e-02, 9.944268600713457e-01, 2.651914815935718e-01, 1.135812134970762e-02, 2.516079617124402e+00, 9.922617692584667e-01, 9.978227752087031e-01, 2.258364139764178e-01, -2.763653836261911e-01
55, 4.019699990750000e-01, -5.791934252128376e-02, 9.942421893466366e-01, 2.661710221179432e-01, 1.017263976057069e-02, 2.515687245422842e+00, 9.920026219822584e-01, 9.977474629538206e-01, 2.266789513892637e-01, -2.856206434907710e-01
56, 3.865399956700000e-01, -5.847246973880800e-02, 9.940577433385724e-01, 2.671332495238468e-01, 8.917082024171146e-03, 2.515294634867492e+00, 9.917445063559273e-01, 9.976729349998564e-01, 2.275097675637900e-01, -2.948390587168837e-01
57, 3.712300062180000e-01, -5.894542230326850e-02, 9.938751786367949e-01, 2.680850962987711e-01, 7.587278849903698e-03, 2.514906529027519e+00, 9.914885232739745e-01, 9.975986367160374e-01, 2.283351373323301e-01, -3.039813116437672e-01
58, 3.560400009160000e-01, -5.933567293665006e-02, 9.936939550143095e-01, 2.690104289641010e-01, 6.180256947861477e-03, 2.514520395074454e+00, 9.912352996356998e-01, 9.975257418381155e-01, 2.291421464370771e-01, -3.130250130107221e-01
59, 3.409900069240000e-01, -5.964016961657857e-02, 9.935134894928384e-01, 2.699206348776959e-01, 4.692244615167618e-03, 2.514135720385656e+00, 9.909832913206892e-01, 9.974532825181462e-01, 2.299416428914982e-01, -3.220253099753863e-01
60, 3.261100053790000e-01, -5.985602249722251e-02, 9.933394053588702e-01, 2.708061961259353e-01, 3.118618323722270e-03, 2.513765962107327e+00, 9.907388801522354e-01, 9.973820376070804e-01, 2.307251514673880e-01, -3.307542802773060e-01
61, 3.113999962810000e-01, -5.998106195040967e-02, 9.931627801393089e-01, 2.716598824483204e-01, 1.457689884060153e-03, 2.513388260684813e+00, 9.904934471710478e-01, 9.973122905714545e-01, 2.314897263786492e-01, -3.395197438911496e-01
62, 2.968699932100000e-01, -6.001298175174697e-02, 9.929984968083163e-01, 2.724886409043572e-01, -2.983492223077945e-04, 2.513040607850100e+00, 9.902615078261766e-01, 9.972437128646854e-01, 2.322391325694291e-01, -3.478032919222639e-01
63, 2.825500071050000e-01, -5.994973441786838e-02, 9.928281892316153e-01, 2.732700150257023e-01, -2.148600136788623e-03, 2.512675276441948e+00, 9.900259934969661e-01, 9.971775622760894e-01, 2.329598285402276e-01, -3.562145179654975e-01
64, 2.684499919410000e-01, -5.978965019565732e-02, 9.926750579741184e-01, 2.740195093356417e-01, -4.104195296585072e-03, 2.512351833705772e+00, 9.898091886102428e-01, 9.971129834069530e-01, 2.336613485211680e-01, -3.639575496341855e-01
65, 2.545700073240000e-01, -5.953099234469991e-02, 9.925150580776214e-01, 2.747069349794306e-01, -6.161743680234609e-03, 2.512007709529904e+00, 9.895888325829248e-01, 9.970517067011919e-01, 2.343251389233361e-01, -3.718274077526841e-01
66, 2.409400045870000e-01, -5.917277971773521e-02, 9.923752453241124e-01, 2.753543241180171e-01, -8.335761844411397e-03, 2.511712712063752e+00, 9.893905701560560e-01, 9.969923925630759e-01, 2.349659607638418e-01, -3.789082087122849e-01
67, 2.275699973110000e-01, -5.871406588741335e-02, 9.922288306435747e-01, 2.759246286775960e-01, -1.062146485860020e-02, 2.511396862930109e+00, 9.891898677776713e-01, 9.969372358753856e-01, 2.355603699478704e-01, -3.860761507974551e-01
68, 2.144699990750000e-01, -5.815410112681161e-02, 9.921050557597291e-01, 2.764412413103421e-01, -1.303448174491891e-02, 2.511135628986064e+00, 9.890144234901505e-01, 9.968847731884486e-01, 2.361244189084346e-01, -3.923420182089125e-01
69, 2.016600072380000e-01, -5.749289762462596e-02, 9.919758818355848e-01, 2.768634642470121e-01, -1.557235524996402e-02, 2.510855645835308e+00, 9.888386805776566e-01, 9.968374218412217e-01, 2.366324100705166e-01, -3.986185507979801e-01
70, 1.891400069000000e-01, -5.672973580986938e-02, 9.918717567324286e-01, 2.772156986692245e-01, -1.825211687068378e-02, 2.510635577041116e+00, 9.886913956343677e-01, 9.967935763101694e-01, 2.371018628157927e-01, -4.038787273440109e-01
71, 1.769299954180000e-01, -5.586524319929318e-02, 9.917643593484085e-01, 2.774534106037965e-01, -2.107236792437768e-02, 2.510401106598215e+00, 9.885469677214156e-01, 9.967558910575225e-01, 2.375046490383492e-01, -4.090368670923004e-01
72, 1.650400012730000e-01, -5.489981114133742e-02, 9.916844619828059e-01, 2.776057750913077e-01, -2.405274356448007e-02, 2.510232220411416e+00, 9.884339757153824e-01, 9.967222575405446e-01, 2.378635793035174e-01, -4.130722958792006e-01
73, 1.534900069240000e-01, -5.383503895481890e-02, 9.916043254133985e-01, 2.776188551969024e-01, -2.719232294503254e-02, 2.510055404826152e+00, 9.883280691973441e-01, 9.966960045130013e-01, 2.381433873002236e-01, -4.168546715234265e-01
74, 1.422899961470000e-01, -5.267213584882544e-02, 9.915538429349154e-01, 2.775273669564636e-01, -3.051639653961145e-02, 2.509949079589973e+00, 9.882562920651871e-01, 9.966743602546406e-01, 2.383738385150205e-01, -4.194181405290337e-01
75, 1.314399987460000e-01, -5.141136091023292e-02, 9.915079263556313e-01, 2.772568979362132e-01, -3.402530621963765e-02, 2.509844900300678e+00, 9.881984774913517e-01, 9.966622063462027e-01, 2.385031506082527e-01, -4.214829467374394e-01
76, 1.209499984980000e-01, -5.005406233316251e-02, 9.914933690453827e-01, 2.768375000263914e-01, -3.774970264165996e-02, 2.509813414081570e+00, 9.881786054610379e-01, 9.966567970217127e-01, 2.385606818408522e-01, -4.221926621057907e-01
77, 1.108499988910000e-01, -4.860483167277491e-02, 9.914897574666202e-01, 2.762036167277211e-01, -4.169632012428431e-02, 2.509799019826457e+00, 9.881802580446594e-01, 9.966620941900430e-01, 2.385043435333481e-01, -4.221336412621656e-01
78, 1.011300012470000e-01, -4.706306927733001e-02, 9.915192090832843e-01, 2.753587556630975e-01, -4.589510299525918e-02, 2.509858753131131e+00, 9.882244301370627e-01, 9.966770397224402e-01, 2.383453210468767e-01, -4.205560665334738e-01
79, 9.181000292300000e-02, -4.543268965031125e-02, 9.915723665502095e-01, 2.742503622051776e-01, -5.036577736532791e-02, 2.509966343573370e+00, 9.883043794100022e-01, 9.967042373804981e-01, 2.380556740018894e-01, -4.177007353570660e-01
80, 8.290000259900000e-02, -4.371654938937921e-02, 9.916597363142896e-01, 2.728247453069739e-01, -5.513820190798888e-02, 2.510145709473336e+00, 9.884332543312645e-01, 9.967463819847957e-01, 2.376061802440930e-01, -4.130980595976966e-01
81, 7.440000027400000e-02, -4.191561473600239e-02, 9.917871107707678e-01, 2.710361536173030e-01, -6.024349014955978e-02, 2.510409993534870e+00, 9.886183477809025e-01, 9.968049968027893e-01, 2.369796691834303e-01, -4.064875792534816e-01
82, 6.633000075800000e-02, -4.003522570473041e-02, 9.919576376276882e-01, 2.687972676376386e-01, -6.571647102500217e-02, 2.510763032901318e+00, 9.888669277441131e-01, 9.968842319809479e-01, 2.361302304824304e-01, -3.976097234245318e-01
83, 5.869000032500000e-02, -3.807661613154388e-02, 9.921900300989117e-01, 2.660249591592208e-01, -7.159708479630596e-02, 2.511248862642219e+00, 9.892009794304157e-01, 9.969874211816080e-01, 2.350195943904738e-01, -3.856793060565809e-01
