"PointID","x","y","Density","Momentum_x","Momentum_y","Energy","Pressure","Temperature","Mach","Pressure_Coefficient"
0, 9.997500181200000e-01, -3.632896574592246e-05, 1.014067435025936e+00, 1.530582634703185e-01, 1.933077308719804e-02, 2.558805327296190e+00, 1.018828062263349e+00, 1.004694586447588e+00, 1.282759541408524e-01, 6.724307951196149e-01
1, 9.990000128750000e-01, -1.452537854904942e-04, 1.008924177906538e+00, 1.742041239727262e-01, 2.455136054688341e-02, 2.546873698806086e+00, 1.012614262071698e+00, 1.003657444479938e+00, 1.471004307349942e-01, 4.505093597035169e-01
2, 9.977599978450000e-01, -3.251115477089107e-04, 1.007678026088370e+00, 1.856202438276140e-01, 2.663043089919409e-02, 2.544336255380891e+00, 1.010755277864813e+00, 1.003053804585169e+00, 1.570368420053323e-01, 3.841170666004567e-01
3, 9.960200190539999e-01, -5.770004367593505e-04, 1.006525108306874e+00, 1.919064488173682e-01, 2.763592434068092e-02, 2.541781186724370e+00, 1.009242848924506e+00, 1.002700122028952e+00, 1.625820389688174e-01, 3.301017473037937e-01
4, 9.937800168990000e-01, -9.004440382215399e-04, 1.005807088639037e+00, 1.966356841254732e-01, 2.829041798673073e-02, 2.540241768620850e+00, 1.008249091246955e+00, 1.002427903556757e+00, 1.667270024933815e-01, 2.946104016769584e-01
5, 9.910500049590000e-01, -1.293384536708934e-03, 1.005232471108247e+00, 2.005903432396535e-01, 2.878522604033491e-02, 2.539024194057302e+00, 1.007439413287165e+00, 1.002195454526538e+00, 1.701882487737071e-01, 2.656933316844691e-01
6, 9.878399968150000e-01, -1.753656705922616e-03, 1.004741528791799e+00, 2.039604424552976e-01, 2.916290163561115e-02, 2.537986830536095e+00, 1.006744730755970e+00, 1.001993748548027e+00, 1.731369224957040e-01, 2.408832412846365e-01
7, 9.841300249100000e-01, -2.283268701030909e-03, 1.004309078228637e+00, 2.069314893866504e-01, 2.945299663858681e-02, 2.537075720568191e+00, 1.006130153725291e+00, 1.001813262008809e+00, 1.757344413815757e-01, 2.189340616175247e-01
8, 9.799500107769999e-01, -2.876984522277481e-03, 1.003907240743495e+00, 2.095690760201399e-01, 2.967550365378962e-02, 2.536223774656061e+00, 1.005564415725667e+00, 1.001650725201409e+00, 1.780419896161259e-01, 1.987291330595245e-01
9, 9.752799868580000e-01, -3.536570198488602e-03, 1.003540584437208e+00, 2.119752368779142e-01, 2.984055325162466e-02, 2.535447916762238e+00, 1.005046709008924e+00, 1.001500810824270e+00, 1.801447857035979e-01, 1.802396074615838e-01
10, 9.701499938960000e-01, -4.256616907963382e-03, 1.003197786982971e+00, 2.141931934271766e-01, 2.995807145584976e-02, 2.534721897582190e+00, 1.004563337712607e+00, 1.001361197908682e+00, 1.820818064220692e-01, 1.629763468788325e-01
11, 9.645400047300000e-01, -5.038681439052033e-03, 1.002875000932424e+00, 2.162560867511790e-01, 3.003362900699269e-02, 2.534037754941093e+00, 1.004108690133696e+00, 1.001230152511654e+00, 1.838818794619310e-01, 1.467389333462926e-01
12, 9.584699869160000e-01, -5.878634942388199e-03, 1.002569921593349e+00, 2.181925750460717e-01, 3.007137086058405e-02, 2.533391222164011e+00, 1.003678902074735e+00, 1.001106137793985e+00, 1.855697250189618e-01, 1.313893598119795e-01
13, 9.519400000570000e-01, -6.775073126744369e-03, 1.002279096627897e+00, 2.200170576707159e-01, 3.007507279632886e-02, 2.532774335523315e+00, 1.003269757333485e+00, 1.000988408028185e+00, 1.871583305910626e-01, 1.167770476244803e-01
14, 9.449599981310000e-01, -7.725178875240819e-03, 1.002001670124850e+00, 2.217477443439992e-01, 3.004762560113201e-02, 2.532185935023240e+00, 1.002879396272447e+00, 1.000875972739135e+00, 1.886633515861048e-01, 1.028355811588191e-01
15, 9.375399947170000e-01, -8.726109652340726e-03, 1.001735672439660e+00, 2.233945638337642e-01, 2.999171599132761e-02, 2.531621579968944e+00, 1.002505310635179e+00, 1.000768304670278e+00, 1.900937051619658e-01, 8.947537982782555e-02
16, 9.296900033950000e-01, -9.775014200641672e-03, 1.001479747336344e+00, 2.249674358015316e-01, 2.990935619842185e-02, 2.531078392184797e+00, 1.002145593852488e+00, 1.000664862687353e+00, 1.914581379217099e-01, 7.662835187456842e-02
17, 9.214000105860000e-01, -1.087167491609583e-02, 1.001232278164485e+00, 2.264748440753512e-01, 2.980287710917857e-02, 2.530552773770436e+00, 1.001798140209063e+00, 1.000565165603346e+00, 1.927642988868918e-01, 6.421929318081326e-02
18, 9.126999974250000e-01, -1.201055778202881e-02, 1.000993018103488e+00, 2.279267193550666e-01, 2.967354204167781e-02, 2.530044673822854e+00, 1.001462129871065e+00, 1.000468646393224e+00, 1.940206941206402e-01, 5.221892396660236e-02
19, 9.035800099370001e-01, -1.319139033937139e-02, 1.000760843935306e+00, 2.293270844419139e-01, 2.952346788584103e-02, 2.529551480480547e+00, 1.001136211975183e+00, 1.000375082660509e+00, 1.952311292685098e-01, 4.057899911366230e-02
20, 8.940600156780000e-01, -1.440998805244900e-02, 1.000535141222929e+00, 2.306807387249001e-01, 2.935316863766681e-02, 2.529071907450784e+00, 1.000819505114239e+00, 1.000284211797861e+00, 1.963998006745613e-01, 2.926803979426606e-02
21, 8.841500282290000e-01, -1.566349413263757e-02, 1.000316089310154e+00, 2.319918595684931e-01, 2.916366162891611e-02, 2.528606635732194e+00, 1.000511960955063e+00, 1.000195809751540e+00, 1.975302880313180e-01, 1.828431982369468e-02
22, 8.738499879840000e-01, -1.695032423177773e-02, 1.000101009817977e+00, 2.332651850147307e-01, 2.895704387639549e-02, 2.528149222041590e+00, 1.000210573499760e+00, 1.000109552615893e+00, 1.986273355146570e-01, 7.520482134275906e-03
23, 8.631799817090000e-01, -1.826638501234948e-02, 9.998922301391950e-01, 2.345062682102823e-01, 2.873366339289103e-02, 2.527705847179047e+00, 9.999173729764200e-01, 1.000025145547157e+00, 1.996952007733152e-01, -2.950965127856183e-03
24, 8.521599769590000e-01, -1.960768751843075e-02, 9.996868396770577e-01, 2.357143628299174e-01, 2.849417228129133e-02, 2.527269121141961e+00, 9.996294808425098e-01, 9.999426231973143e-01, 2.007339029334216e-01, -1.323282705322147e-02
25, 8.407700061800000e-01, -2.097509599000216e-02, 9.994858433326235e-01, 2.368975724365179e-01, 2.823986235858598e-02, 2.526842094412624e+00, 9.993473918750378e-01, 9.998614773200550e-01, 2.017502309154354e-01, -2.330743303436254e-02
26, 8.290500044819999e-01, -2.236225618174383e-02, 9.992881454934072e-01, 2.380553539074630e-01, 2.797080573426788e-02, 2.526421954769531e+00, 9.990700529863231e-01, 9.997817521321879e-01, 2.027439631255949e-01, -3.321239334560285e-02
27, 8.170099854470000e-01, -2.376650281994303e-02, 9.990932886456325e-01, 2.391910462691878e-01, 2.768780921358730e-02, 2.526007764361408e+00, 9.987967878854987e-01, 9.997032301552785e-01, 2.037181135807370e-01, -4.297186123218755e-02
28, 8.046399950980000e-01, -2.518746460071468e-02, 9.989001540052791e-01, 2.403062806317328e-01, 2.739079670877887e-02, 2.525596805268554e+00, 9.985263674700050e-01, 9.996258019044495e-01, 2.046743041326771e-01, -5.262973321410698e-02
29, 7.919700145720000e-01, -2.662015845605070e-02, 9.987098241311710e-01, 2.414083698580732e-01, 2.708050727963927e-02, 2.525192290083160e+00, 9.982593983747403e-01, 9.995489923644014e-01, 2.056186059783745e-01, -6.216434375927452e-02
30, 7.790099978450000e-01, -2.806196014066351e-02, 9.985211800979809e-01, 2.424875626854285e-01, 2.675483008141830e-02, 2.524790705961842e+00, 9.979954458164094e-01, 9.994734871006745e-01, 2.065428053879483e-01, -7.159122084252070e-02
31, 7.657799720760000e-01, -2.950915112481939e-02, 9.983368422655887e-01, 2.435574774423211e-01, 2.641347140903478e-02, 2.524399562638854e+00, 9.977362446868672e-01, 9.993984018686936e-01, 2.074579180074269e-01, -8.084840404045830e-02
32, 7.522799968720000e-01, -3.096020720212907e-02, 9.981515017118039e-01, 2.446142737220925e-01, 2.605821457480284e-02, 2.524005267050463e+00, 9.974766582581920e-01, 9.993239067892455e-01, 2.083620013822317e-01, -9.011934792171490e-02
33, 7.385200262070000e-01, -3.241247533979789e-02, 9.979684556137834e-01, 2.456659603708265e-01, 2.568707553890084e-02, 2.523616640135700e+00, 9.972194980531510e-01, 9.992495178014703e-01, 2.092610334335138e-01, -9.930364095889214e-02
34, 7.245299816130000e-01, -3.386122629758013e-02, 9.977845668559472e-01, 2.467137021235025e-01, 2.530133037623117e-02, 2.523225895459217e+00, 9.969614827575805e-01, 9.991750883650565e-01, 2.101568385499279e-01, -1.085184729435553e-01
35, 7.103199958800001e-01, -3.530384529688486e-02, 9.976014401162315e-01, 2.477500158192149e-01, 2.489724687387836e-02, 2.522836506317688e+00, 9.967048002539155e-01, 9.991012043224282e-01, 2.110424497558311e-01, -1.176857052173036e-01
36, 6.958900094030001e-01, -3.673867908443040e-02, 9.974184788632675e-01, 2.487856987005028e-01, 2.447499405076932e-02, 2.522447741172994e+00, 9.964480775366217e-01, 9.990270870780822e-01, 2.119272684959431e-01, -1.268543736920829e-01
37, 6.812700033190000e-01, -3.816104493081713e-02, 9.972351218447222e-01, 2.498157535807657e-01, 2.403237385131012e-02, 2.522057824085373e+00, 9.961911104943615e-01, 9.989530940823371e-01, 2.128070644167588e-01, -1.360317680585184e-01
38, 6.664699912070000e-01, -3.956824941259938e-02, 9.970516894777446e-01, 2.508512961223427e-01, 2.356959981808840e-02, 2.521668362830870e+00, 9.959334218118638e-01, 9.988784255844687e-01, 2.136913516598725e-01, -1.452349352905772e-01
39, 6.514999866490000e-01, -4.095753144487734e-02, 9.968664937675021e-01, 2.518807328674623e-01, 2.308336241057194e-02, 2.521274273568233e+00, 9.956741400486414e-01, 9.988038982889733e-01, 2.145704637057269e-01, -1.544949982628069e-01
40, 6.363800168040000e-01, -4.232515946361176e-02, 9.966817421583412e-01, 2.529206639529870e-01, 2.257328925947777e-02, 2.520882304417025e+00, 9.954143049716869e-01, 9.987283431279584e-01, 2.154581719453147e-01, -1.637748224397527e-01
41, 6.211299896240000e-01, -4.366742595028229e-02, 9.964941280467048e-01, 2.539538871038095e-01, 2.203605289545826e-02, 2.520482900304762e+00, 9.951518059235185e-01, 9.986529553106175e-01, 2.163404166453205e-01, -1.731497884457685e-01
42, 6.057599782940000e-01, -4.498146485929962e-02, 9.963071191203844e-01, 2.550003992099713e-01, 2.147072976548393e-02, 2.520086230819293e+00, 9.948887073429175e-01, 9.985763307816982e-01, 2.172335982731452e-01, -1.825461663243767e-01
43, 5.902799963950000e-01, -4.626432604679213e-02, 9.961164797325976e-01, 2.560408261515340e-01, 2.087382921631795e-02, 2.519680244749834e+00, 9.946221170502587e-01, 9.984998113044572e-01, 2.181220413532881e-01, -1.920672482050460e-01
44, 5.747100114820000e-01, -4.751218012317759e-02, 9.959265661285970e-01, 2.570967534287285e-01, 2.024379597679201e-02, 2.519277472594111e+00, 9.943548734040032e-01, 9.984218789034787e-01, 2.190233242551535e-01, -2.016116641427432e-01
45, 5.590599775310000e-01, -4.872197205951505e-02, 9.957324859662889e-01, 2.581458699177070e-01, 1.957730830263307e-02, 2.518863994199894e+00, 9.940836363398281e-01, 9.983440837276083e-01, 2.199194756636325e-01, -2.112987021489964e-01
46, 5.433599948880000e-01, -4.988908161433654e-02, 9.955396907284775e-01, 2.592112025034061e-01, 1.887212423880321e-02, 2.518455210650513e+00, 9.938122376321674e-01, 9.982648074080845e-01, 2.208290904836719e-01, -2.209915131368781e-01
47, 5.276100039480000e-01, -5.101114293914597e-02, 9.953414148166414e-01, 2.602672539991800e-01, 1.812564676040896e-02, 2.518032259447327e+00, 9.935356707086489e-01, 9.981858043068318e-01, 2.217320009235428e-01, -2.308689032625394e-01
48, 5.118399858470000e-01, -5.208357880823797e-02, 9.951461133173608e-01, 2.613378404517608e-01, 1.733332476679794e-02, 2.517618147179195e+00, 9.932607585615297e-01, 9.981054493098045e-01, 2.226467514389643e-01, -2.406871942310811e-01
49, 4.960500001910000e-01, -5.310387596609019e-02, 9.949453976190490e-01, 2.623999320717302e-01, 1.649395219382650e-02, 2.517190121871220e+00, 9.929806581118473e-01, 9.980252790636520e-01, 2.235558145066051e-01, -2.506907817197385e-01
50, 4.802699983120000e-01, -5.406753173549669e-02, 9.947473426438197e-01, 2.634762598933309e-01, 1.560263412991716e-02, 2.516770176724736e+00, 9.927018645443175e-01, 9.979437209713318e-01, 2.244769860081490e-01, -2.606476948458028e-01
51, 4.645099937920000e-01, -5.497137054778545e-02, 9.945445416877625e-01, 2.645465626683234e-01, 1.465852811134276e-02, 2.516338231799405e+00, 9.924183269482969e-01, 9.978621221570860e-01, 2.253949997689762e-01, -2.707740375608250e-01
52, 4.487800002100000e-01, -5.581215981488272e-02, 9.943425015409207e-01, 2.656235838657591e-01, 1.365696304056209e-02, 2.515909100684274e+00, 9.921346596487126e-01, 9.977795961765826e-01, 2.263198087609538e-01, -2.809050125459782e-01
53, 4.331099987030000e-01, -5.658567151819429e-02, 9.941375009095198e-01, 2.666938586437162e-01, 1.259514598250241e-02, 2.515472458106816e+00, 9.918480592004530e-01, 9.976970572913988e-01, 2.272411498559379e-01, -2.911407428409628e-01
54, 4.174999892710000e-01, -5.728926704566118e-02, 9.939330886280437e-01, 2.677649202975380e-01, 1.146841358422042e-02, 2.515037824412437e+00, 9.915615256191996e-01, 9.976139611046480e-01, 2.281651069089614e-01, -3.013740850285846e-01
55, 4.019699990750000e-01, -5.791934252128376e-02, 9.937282372686627e-01, 2.688377270262908e-01, 1.027461963140722e-02, 2.514602752946569e+00, 9.912738807723375e-01, 9.975301532106293e-01, 2.290933582007290e-01, -3.116471152736620e-01
56, 3.865399956700000e-01, -5.847246973880800e-02, 9.935227164089064e-01, 2.698969678365725e-01, 9.009410345949638e-03, 2.514165536947581e+00, 9.909860184397381e-01, 9.974467639971666e-01, 2.300134080045485e-01, -3.219279128664965e-01
57, 3.712300062180000e-01, -5.894542230326850e-02, 9.933181235104066e-01, 2.709495799184934e-01, 7.668414852710004e-03, 2.513730781436827e+00, 9.906989693938555e-01, 9.973632272938959e-01, 2.309315629393300e-01, -3.321796645051613e-01
58, 3.560400009160000e-01, -5.933567293665006e-02, 9.931139355515867e-01, 2.719802577089922e-01, 6.248516722621722e-03, 2.513296052324647e+00, 9.904133225528881e-01, 9.972806614608641e-01, 2.318356241167162e-01, -3.423813373968554e-01
59, 3.409900069240000e-01, -5.964016961657857e-02, 9.929093582952584e-01, 2.730004122292518e-01, 4.745826496900371e-03, 2.512860324319609e+00, 9.901273011878284e-01, 9.971980754494989e-01, 2.327365421381774e-01, -3.525963861489846e-01
60, 3.261100053790000e-01, -5.985602249722251e-02, 9.927101687567480e-01, 2.740009555557317e-01, 3.155445243752227e-03, 2.512437469709214e+00, 9.898474143293260e-01, 9.971162233272910e-01, 2.336261727669054e-01, -3.625923453812147e-01
61, 3.113999962810000e-01, -5.998106195040967e-02, 9.925071219938740e-01, 2.749746082185235e-01, 1.475510093578524e-03, 2.512003817336676e+00, 9.895647169170119e-01, 9.970353813976157e-01, 2.345016536256506e-01, -3.726886815352907e-01
62, 2.968699932100000e-01, -6.001298175174697e-02, 9.923152410831654e-01, 2.759291982017448e-01, -3.020724931081273e-04, 2.511597789647612e+00, 9.892937879801860e-01, 9.969551479430256e-01, 2.353674647912418e-01, -3.823647149933584e-01
63, 2.825500071050000e-01, -5.994973441786838e-02, 9.921158762228228e-01, 2.768420333351220e-01, -2.176653273730141e-03, 2.511170918271201e+00, 9.890172993279123e-01, 9.968767994050178e-01, 2.362100067014878e-01, -3.922393097174191e-01
64, 2.684499919410000e-01, -5.978965019565732e-02, 9.919323354958204e-01, 2.777296433175677e-01, -4.159711702606463e-03, 2.510783139288022e+00, 9.887575458713133e-01, 9.967993889190840e-01, 2.370396492077941e-01, -4.015162188816695e-01
65, 2.545700073240000e-01, -5.953099234469991e-02, 9.917402193482081e-01, 2.785617469626819e-01, -6.248167106397756e-03, 2.510370967703203e+00, 9.884919308947778e-01, 9.967246579395914e-01, 2.378379503744725e-01, -4.110024680436493e-01
66, 2.409400045870000e-01, -5.917277971773521e-02, 9.915667846354997e-01, 2.793616274843498e-01, -8.457022306020270e-03, 2.510004842815960e+00, 9.882461773838455e-01, 9.966511511850665e-01, 2.386206847375177e-01, -4.197793791483767e-01
67, 2.275699973110000e-01, -5.871406588741335e-02, 9.913847158689927e-01, 2.800919240469775e-01, -1.078182244577583e-02, 2.509613414758591e+00, 9.879952660675272e-01, 9.965810953636760e-01, 2.393643967242008e-01, -4.287404975883148e-01
68, 2.144699990750000e-01, -5.815410112681161e-02, 9.912235932798973e-01, 2.807775166057681e-01, -1.323888342984018e-02, 2.509273150704113e+00, 9.877670889286958e-01, 9.965128913651420e-01, 2.400863365123593e-01, -4.368896811180072e-01
69, 2.016600072380000e-01, -5.749289762462596e-02, 9.910546367948099e-01, 2.813775796925705e-01, -1.582618467150038e-02, 2.508908785749246e+00, 9.875353746742643e-01, 9.964489726500579e-01, 2.407610407969114e-01, -4.451651902048455e-01
70, 1.891400069000000e-01, -5.672973580986938e-02, 9.909087998999901e-01, 2.819182757209566e-01, -1.856169179502032e-02, 2.508600432336159e+00, 9.873292148733729e-01, 9.963875736828876e-01, 2.414074529753563e-01, -4.525280402366829e-01
71, 1.769299954180000e-01, -5.586524319929318e-02, 9.907567269872954e-01, 2.823550285552383e-01, -2.144456884982014e-02, 2.508271139665763e+00, 9.871219936401217e-01, 9.963313563782442e-01, 2.419978676321460e-01, -4.599287985670840e-01
72, 1.650400012730000e-01, -5.489981114133742e-02, 9.906298694029387e-01, 2.827192650837007e-01, -2.449573434366691e-02, 2.508002833687431e+00, 9.869427454861182e-01, 9.962780004614210e-01, 2.425569630795651e-01, -4.663305183529232e-01
73, 1.534900069240000e-01, -5.383503895481890e-02, 9.904993281641504e-01, 2.829566164238135e-01, -2.771502760149227e-02, 2.507719006421523e+00, 9.867660226877251e-01, 9.962308854026739e-01, 2.430496434241877e-01, -4.726420468669622e-01
74, 1.422899961470000e-01, -5.267213584882544e-02, 9.903955734058891e-01, 2.831043559098096e-01, -3.112951974871986e-02, 2.507499810182182e+00, 9.866191716719024e-01, 9.961869763603650e-01, 2.435079430453293e-01, -4.778867260034865e-01
75, 1.314399987460000e-01, -5.141136091023292e-02, 9.902922970203609e-01, 2.830883483850426e-01, -3.474075700430142e-02, 2.507273781142945e+00, 9.864808411581357e-01, 9.961511809455723e-01, 2.438809494036577e-01, -4.828271014951529e-01
76, 1.209499984980000e-01, -5.005406233316251e-02, 9.902166567052914e-01, 2.829412297349478e-01, -3.858179346084960e-02, 2.507112680925358e+00, 9.863750819456433e-01, 9.961204704711495e-01, 2.442005352020199e-01, -4.866042162270262e-01
77, 1.108499988910000e-01, -4.860483167277491e-02, 9.901474059653194e-01, 2.825991594992831e-01, -4.266167397724765e-02, 2.506958903367034e+00, 9.862845425372641e-01, 9.960986986333726e-01, 2.444268606164374e-01, -4.898377665262840e-01
78, 1.011300012470000e-01, -4.706306927733001e-02, 9.901062990206844e-01, 2.820686828527870e-01, -4.701326512649723e-02, 2.506868887544599e+00, 9.862295328569779e-01, 9.960844950006471e-01, 2.445744045390758e-01, -4.918023979650753e-01
79, 9.181000292300000e-02, -4.543268965031125e-02, 9.900835118062872e-01, 2.812987146458308e-01, -5.166000509156386e-02, 2.506815304048234e+00, 9.862027229338175e-01, 9.960803418841009e-01, 2.446175300030836e-01, -4.927598952208038e-01
80, 8.290000259900000e-02, -4.371654938937921e-02, 9.900887467779056e-01, 2.802374757747350e-01, -5.663619279614304e-02, 2.506820206216019e+00, 9.862162896942867e-01, 9.960887778027766e-01, 2.445299243461635e-01, -4.922753680611912e-01
81, 7.440000027400000e-02, -4.191561473600239e-02, 9.901274174174098e-01, 2.788434742407292e-01, -6.197888716778804e-02, 2.506896183106962e+00, 9.862767428824587e-01, 9.961109303032989e-01, 2.442997320391672e-01, -4.901163256264752e-01
82, 6.633000075800000e-02, -4.003522570473041e-02, 9.902016007885109e-01, 2.770325504801782e-01, -6.773011998682955e-02, 2.507044637393562e+00, 9.863900077161727e-01, 9.961506898501247e-01, 2.438860613860100e-01, -4.860711529938327e-01
83, 5.869000032500000e-02, -3.807661613154388e-02, 9.903298030885280e-01, 2.747258591242216e-01, -7.393938192633298e-02, 2.507309486785295e+00, 9.865774564298899e-01, 9.962110130918654e-01, 2.432571598009478e-01, -4.793765560753602e-01
