"PointID","x","y","Density","Momentum_x","Momentum_y","Energy","Pressure","Temperature","Mach","Pressure_Coefficient"
0, 9.997500181200000e-01, -3.632896519016437e-05, 1.008862969095053e+00, 1.107101602040538e-01, 1.380909206609774e-02, 2.535271184262701e+00, 1.011640857987702e+00, 1.002753484841595e+00, 9.333543751774839e-02, 7.391020944572760e-01
1, 9.990000128750000e-01, -1.452537504052920e-04, 1.005175134657371e+00, 1.284685365479996e-01, 1.802345082164608e-02, 2.526639289115824e+00, 1.007307242513229e+00, 1.002121130718762e+00, 1.089590769383251e-01, 4.639519056018137e-01
2, 9.977599978450000e-01, -3.251111630156300e-04, 1.004443477215998e+00, 1.381972079024240e-01, 1.979122200895567e-02, 2.525182137853848e+00, 1.006192067186272e+00, 1.001740854522865e+00, 1.173655117239066e-01, 3.931471229378816e-01
3, 9.960200190539999e-01, -5.769983605901485e-04, 1.003686344719150e+00, 1.432616078477966e-01, 2.062742445898427e-02, 2.523490572662371e+00, 1.005221741879151e+00, 1.001529757944880e+00, 1.217843868128346e-01, 3.315391669302455e-01
4, 9.937800168990000e-01, -9.004365425509819e-04, 1.003262456154767e+00, 1.468814883523405e-01, 2.113263417448558e-02, 2.522579898346848e+00, 1.004642128998202e+00, 1.001375186358237e+00, 1.249220663160884e-01, 2.947383490921723e-01
5, 9.910500049590000e-01, -1.293363843462116e-03, 1.002929539635955e+00, 1.498627873039280e-01, 2.150566065072600e-02, 2.521873181736914e+00, 1.004178393574614e+00, 1.001245206058157e+00, 1.275015358310854e-01, 2.652948301342098e-01
6, 9.878399968150000e-01, -1.753609743384430e-03, 1.002654108048058e+00, 1.524098924432308e-01, 2.179075378086310e-02, 2.521293856629301e+00, 1.003789369281735e+00, 1.001132256103640e+00, 1.297019139096150e-01, 2.405948750307945e-01
7, 9.841300249100000e-01, -2.283176811071472e-03, 1.002414367850474e+00, 1.546565767156741e-01, 2.201058446386723e-02, 2.520792305650747e+00, 1.003448052991758e+00, 1.001031195456128e+00, 1.316399152003566e-01, 2.189239994767119e-01
8, 9.799500107769999e-01, -2.876826092032643e-03, 1.002190995754001e+00, 1.566447293539889e-01, 2.217890193031691e-02, 2.520321420402883e+00, 1.003133617092691e+00, 1.000940560574466e+00, 1.333543574118017e-01, 1.989598154089806e-01
9, 9.752799868580000e-01, -3.536324145770189e-03, 1.001988524735872e+00, 1.584510534701348e-01, 2.230304890516859e-02, 2.519895620841649e+00, 1.002847578562669e+00, 1.000857348967169e+00, 1.349094678391007e-01, 1.807986388996428e-01
10, 9.701499938960000e-01, -4.256268552403566e-03, 1.001799685125235e+00, 1.601125208486084e-01, 2.239125330833134e-02, 2.519498123247749e+00, 1.002581162700491e+00, 1.000780073688242e+00, 1.363379800296012e-01, 1.638833460628941e-01
11, 9.645400047300000e-01, -5.038225493362627e-03, 1.001622292209230e+00, 1.616552218115639e-01, 2.244802129526873e-02, 2.519124466272232e+00, 1.002331150011642e+00, 1.000707709690495e+00, 1.376624597826332e-01, 1.480095245487177e-01
12, 9.584699869160000e-01, -5.878077433056352e-03, 1.001455129246011e+00, 1.631009773356409e-01, 2.247638780704405e-02, 2.518772470351626e+00, 1.002095442186354e+00, 1.000639382556086e+00, 1.389016340313262e-01, 1.330439483399466e-01
13, 9.519400000570000e-01, -6.774428848839826e-03, 1.001295896728506e+00, 1.644611020554963e-01, 2.247919095227332e-02, 2.518436794331490e+00, 1.001871295975810e+00, 1.000574654554347e+00, 1.400655772614416e-01, 1.188124429086022e-01
14, 9.449599981310000e-01, -7.724467125531491e-03, 1.001144405058192e+00, 1.657496407878770e-01, 2.245848130015120e-02, 2.518117537269853e+00, 1.001657945706282e+00, 1.000512953621371e+00, 1.411662920875417e-01, 1.052663940496631e-01
15, 9.375399947170000e-01, -8.725349486403867e-03, 1.000999469608495e+00, 1.669743451360430e-01, 2.241622743381130e-02, 2.517812029756363e+00, 1.001453895973473e+00, 1.000453972633129e+00, 1.422106457876091e-01, 9.231085545862483e-02
16, 9.296900033950000e-01, -9.774221272349531e-03, 1.000860171807674e+00, 1.681426813386637e-01, 2.235401443050557e-02, 2.517518268719195e+00, 1.001257920298666e+00, 1.000397406652994e+00, 1.432051974858879e-01, 7.986795547087155e-02
17, 9.214000105860000e-01, -1.087086069705918e-02, 1.000725745548533e+00, 1.692602711076388e-01, 2.227345563896840e-02, 2.517234558140839e+00, 1.001069021340091e+00, 1.000343026841354e+00, 1.441549479876252e-01, 6.787437079940131e-02
18, 9.126999974250000e-01, -1.200973104171110e-02, 1.000595905680215e+00, 1.703343187548915e-01, 2.217554742617259e-02, 2.516960490835720e+00, 1.000886603733349e+00, 1.000290524927681e+00, 1.450660982979822e-01, 5.629230053012562e-02
19, 9.035800099370001e-01, -1.319055953446835e-02, 1.000470162029592e+00, 1.713688636651576e-01, 2.206193994327483e-02, 2.516695005975339e+00, 1.000710004990316e+00, 1.000239730248664e+00, 1.459422965502203e-01, 4.507968192482077e-02
20, 8.940600156780000e-01, -1.440916392228702e-02, 1.000348116391508e+00, 1.723680847831524e-01, 2.193334666423980e-02, 2.516437280679059e+00, 1.000538647924645e+00, 1.000190465229069e+00, 1.467871962612134e-01, 3.419986823142700e-02
21, 8.841500282290000e-01, -1.566269158090452e-02, 1.000229960086165e+00, 1.733338399663123e-01, 2.179034466806716e-02, 2.516187860499504e+00, 1.000372659688021e+00, 1.000142666794189e+00, 1.476024003987682e-01, 2.366093257278474e-02
22, 8.738499879840000e-01, -1.694956337677533e-02, 1.000113972613623e+00, 1.742697626544562e-01, 2.163436652390099e-02, 2.515942595130990e+00, 1.000210141711583e+00, 1.000096158138567e+00, 1.483913827269216e-01, 1.334233089418416e-02
23, 8.631799817090000e-01, -1.826569132102762e-02, 1.000001656532960e+00, 1.751806178122796e-01, 2.146590750127069e-02, 2.515705469806439e+00, 1.000052391434050e+00, 1.000050734817046e+00, 1.491579953037930e-01, 3.326440257114861e-03
24, 8.521599769590000e-01, -1.960709133914372e-02, 9.998913390783110e-01, 1.760660965191715e-01, 2.128538177349913e-02, 2.515472259608252e+00, 9.998977526768679e-01, 1.000006414295540e+00, 1.499022834760847e-01, -6.491893532198855e-03
25, 8.407700061800000e-01, -2.097463226217677e-02, 9.997835228695792e-01, 1.769321135106795e-01, 2.109382563638161e-02, 2.515244511780037e+00, 9.997464453336951e-01, 9.999629144359397e-01, 1.506292776933691e-01, -1.609870897174254e-02
26, 8.290500044819999e-01, -2.236196298315981e-02, 9.996778044507291e-01, 1.777785275975449e-01, 2.089112927367092e-02, 2.515021193919587e+00, 9.995980833359278e-01, 9.999202531911321e-01, 1.513389255954043e-01, -2.551851835378974e-02
27, 8.170099854470000e-01, -2.376642068849115e-02, 9.995735067796947e-01, 1.786084494158094e-01, 2.067825141897292e-02, 2.514800760591865e+00, 9.994518318202213e-01, 9.998782731248399e-01, 1.520340677522379e-01, -3.480432887483506e-02
28, 8.046399950980000e-01, -2.518763605296113e-02, 9.994702620214111e-01, 1.794215365584595e-01, 2.045478063400153e-02, 2.514582259510890e+00, 9.993073498042140e-01, 9.998370014362734e-01, 1.527144517823985e-01, -4.397779020863592e-02
29, 7.919700145720000e-01, -2.662062628442961e-02, 9.993686655861383e-01, 1.802248773780031e-01, 2.022132207493466e-02, 2.514367541803288e+00, 9.991648795331163e-01, 9.997960852085528e-01, 1.533860519370281e-01, -5.302352170690294e-02
30, 7.790099978450000e-01, -2.806276676215449e-02, 9.992680681424174e-01, 1.810116558642106e-01, 1.997671624888696e-02, 2.514154615474949e+00, 9.990241300839414e-01, 9.997558832647087e-01, 1.540431291753296e-01, -6.195999467038609e-02
31, 7.657799720760000e-01, -2.951033727360171e-02, 9.991706879595365e-01, 1.817891488908769e-01, 1.972007787708241e-02, 2.513949404667676e+00, 9.988869762341712e-01, 9.997160527937980e-01, 1.546914343687381e-01, -7.066817560817655e-02
32, 7.522799968720000e-01, -3.096181144522562e-02, 9.990721447623627e-01, 1.825558701344792e-01, 1.945301734704014e-02, 2.513740857832164e+00, 9.987490695188106e-01, 9.996766247109925e-01, 1.553305755457441e-01, -7.942415753583529e-02
33, 7.385200262070000e-01, -3.241453277608040e-02, 9.989757202024225e-01, 1.833170301802955e-01, 1.917381995823029e-02, 2.513537459199085e+00, 9.986134632344663e-01, 9.996373715990989e-01, 1.559643285372060e-01, -8.803408035134518e-02
34, 7.245299816130000e-01, -3.386376679305321e-02, 9.988781470415184e-01, 1.840758089957259e-01, 1.888385053646393e-02, 2.513331193684400e+00, 9.984766856296940e-01, 9.995980877016748e-01, 1.565960602422042e-01, -9.671837271783816e-02
35, 7.103199958800001e-01, -3.530689307158652e-02, 9.987819427295273e-01, 1.848266960607467e-01, 1.858020761244020e-02, 2.513128065297711e+00, 9.983415834402524e-01, 9.995591036737496e-01, 1.572205091599708e-01, -1.052962895077863e-01
36, 6.958900094030001e-01, -3.674225211597043e-02, 9.986854242114541e-01, 1.855756128101532e-01, 1.826313255129857e-02, 2.512924169696528e+00, 9.982061437823408e-01, 9.995200886910997e-01, 1.578430290057670e-01, -1.138956328672477e-01
37, 6.812700033190000e-01, -3.816515293304169e-02, 9.985893170481441e-01, 1.863183799606781e-01, 1.793042881057166e-02, 2.512721093692402e+00, 9.980713307664522e-01, 9.994812819716289e-01, 1.584598477843709e-01, -1.224551894316091e-01
38, 6.664699912070000e-01, -3.957289370556494e-02, 9.984929753883118e-01, 1.870645758605048e-01, 1.758275787942349e-02, 2.512517735100837e+00, 9.979359759079737e-01, 9.994421598408127e-01, 1.590793072337895e-01, -1.310491487000844e-01
39, 6.514999866490000e-01, -4.096270419333766e-02, 9.983960621919201e-01, 1.878048110895553e-01, 1.721738148507357e-02, 2.512312737896036e+00, 9.978002502916383e-01, 9.994032309192271e-01, 1.596933701840068e-01, -1.396666481499477e-01
40, 6.363800168040000e-01, -4.233084266562091e-02, 9.982995429213791e-01, 1.885525389768958e-01, 1.683428154768297e-02, 2.512109249275603e+00, 9.976644010229968e-01, 9.993637762304053e-01, 1.603133750862676e-01, -1.482919985398855e-01
41, 6.211299896240000e-01, -4.367359094194759e-02, 9.982016455122776e-01, 1.892936056574152e-01, 1.643074054743684e-02, 2.511902059390821e+00, 9.975274078347999e-01, 9.993245476197030e-01, 1.609275074340490e-01, -1.569899787428653e-01
42, 6.057599782940000e-01, -4.498807223669178e-02, 9.981043569372986e-01, 1.900442549209810e-01, 1.600631809095186e-02, 2.511697032223932e+00, 9.973903924364427e-01, 9.992846795068138e-01, 1.615493084242167e-01, -1.656893691147509e-01
43, 5.902799963950000e-01, -4.627132533375768e-02, 9.980052488970755e-01, 1.907884311141285e-01, 1.555816160867199e-02, 2.511487206676367e+00, 9.972517786377521e-01, 9.992450237509714e-01, 1.621654811936373e-01, -1.744902452220921e-01
44, 5.747100114820000e-01, -4.751950934859488e-02, 9.979069129411499e-01, 1.915437546702586e-01, 1.508538091882998e-02, 2.511280044639540e+00, 9.971132157848208e-01, 9.992046380819334e-01, 1.627906483430019e-01, -1.832878866780435e-01
45, 5.590599775310000e-01, -4.872955796694115e-02, 9.978063795707346e-01, 1.922919373727403e-01, 1.458528642153731e-02, 2.511067103910023e+00, 9.969727060683915e-01, 9.991644937139993e-01, 1.634097596719281e-01, -1.922091385148254e-01
46, 5.433599948880000e-01, -4.989683951066199e-02, 9.977072413251722e-01, 1.930516235943649e-01, 1.405636527269998e-02, 2.510858418867576e+00, 9.968328455772116e-01, 9.991235948665673e-01, 1.640381546329031e-01, -2.010891697008487e-01
47, 5.276100039480000e-01, -5.101897737545535e-02, 9.976047330317195e-01, 1.938022916594834e-01, 1.349671725030751e-02, 2.510640922992069e+00, 9.966899476714790e-01, 9.990830182236003e-01, 1.646592797366193e-01, -2.101620526045078e-01
48, 5.118399858470000e-01, -5.209138375948307e-02, 9.975049149843164e-01, 1.945622222070576e-01, 1.290296392188803e-02, 2.510430817594822e+00, 9.965491175244764e-01, 9.990418117790881e-01, 1.652877081421371e-01, -2.191036492395943e-01
49, 4.960500001910000e-01, -5.311153541819326e-02, 9.974017989056396e-01, 1.953128139458818e-01, 1.227409767244716e-02, 2.510212076548941e+00, 9.964053279743728e-01, 9.990009332925206e-01, 1.659088339215848e-01, -2.282331444842695e-01
50, 4.802699983120000e-01, -5.407492053959814e-02, 9.973014130993210e-01, 1.960721133583226e-01, 1.160655498427366e-02, 2.510000820095956e+00, 9.962636527968403e-01, 9.989594316333561e-01, 1.665371103831775e-01, -2.372283938514122e-01
51, 4.645099937920000e-01, -5.497835513414191e-02, 9.971978187942500e-01, 1.968242297629396e-01, 1.089980608766743e-02, 2.509781297550016e+00, 9.961189634260903e-01, 9.989181129883900e-01, 1.671603220562763e-01, -2.464150205656955e-01
52, 4.487800002100000e-01, -5.581859897363720e-02, 9.970959758095040e-01, 1.975801254384407e-01, 1.015032438520559e-02, 2.509566566236258e+00, 9.959756400292096e-01, 9.988764012617896e-01, 1.677871666849214e-01, -2.555149187803446e-01
53, 4.331099987030000e-01, -5.659141825851464e-02, 9.969918267903898e-01, 1.983273503287244e-01, 9.356478973827473e-03, 2.509345777998805e+00, 9.958302661127112e-01, 9.988349346038093e-01, 1.684080673411502e-01, -2.647450087167498e-01
54, 4.174999892710000e-01, -5.729416860686566e-02, 9.968894017301358e-01, 1.990710124549386e-01, 8.514077741308166e-03, 2.509129336274055e+00, 9.956866066928918e-01, 9.987934518762499e-01, 1.690269777898771e-01, -2.738662417211574e-01
55, 4.019699990750000e-01, -5.792324246601335e-02, 9.967865889919415e-01, 1.998144277360325e-01, 7.622311488150460e-03, 2.508912171189912e+00, 9.955423076579391e-01, 9.987517073887796e-01, 1.696475659401191e-01, -2.830280852102190e-01
56, 3.865399956700000e-01, -5.847520956655861e-02, 9.966845608346073e-01, 2.005460770324711e-01, 6.677604437851581e-03, 2.508696588518044e+00, 9.953991845967372e-01, 9.987103479993774e-01, 1.702602491617077e-01, -2.921152636992286e-01
57, 3.712300062180000e-01, -5.894684318665333e-02, 9.965831243366272e-01, 2.012717130805500e-01, 5.677442129933149e-03, 2.508482468166882e+00, 9.952566793471287e-01, 9.986690071735047e-01, 1.708705124710803e-01, -3.011632160553213e-01
58, 3.560400009160000e-01, -5.933561549045978e-02, 9.964829825759783e-01, 2.019755288453653e-01, 4.618934728693625e-03, 2.508270696219529e+00, 9.951163776678130e-01, 9.986285717548007e-01, 1.714653578457966e-01, -3.100712591864748e-01
59, 3.409900069240000e-01, -5.963847719943702e-02, 9.963823327523771e-01, 2.026673862438573e-01, 3.499673585971353e-03, 2.508057366237729e+00, 9.949758478038434e-01, 9.985884083827056e-01, 1.720542127557802e-01, -3.189937902321649e-01
60, 3.261100053790000e-01, -5.985254444802346e-02, 9.962866525156256e-01, 2.033391021915067e-01, 2.315663169280793e-03, 2.507855772881486e+00, 9.948410531493046e-01, 9.985490126133170e-01, 1.726299078460223e-01, -3.275521809965335e-01
61, 3.113999962810000e-01, -5.997565198183213e-02, 9.961877457009651e-01, 2.039878971639071e-01, 1.066323807756084e-03, 2.507645273352595e+00, 9.947038208215508e-01, 9.985103963727541e-01, 1.731923982764322e-01, -3.362653446634387e-01
62, 2.968699932100000e-01, -6.000550062925582e-02, 9.960982496329319e-01, 2.046166542352222e-01, -2.548562338813465e-04, 2.507457754215007e+00, 9.945766939531220e-01, 9.984724843353853e-01, 1.737429017497211e-01, -3.443368918652712e-01
63, 2.825500071050000e-01, -5.994005483718394e-02, 9.960025666249288e-01, 2.052110641197947e-01, -1.646443161950005e-03, 2.507253366919451e+00, 9.944446834973285e-01, 9.984358643443267e-01, 1.742730324509003e-01, -3.527185081061266e-01
64, 2.684499919410000e-01, -5.977765596976551e-02, 9.959196361574851e-01, 2.057799375364210e-01, -3.117539373557867e-03, 2.507080153032720e+00, 9.943263344041143e-01, 9.984001703596107e-01, 1.747882476466736e-01, -3.602327362467093e-01
65, 2.545700073240000e-01, -5.951657836311273e-02, 9.958295942281258e-01, 2.063032540510288e-01, -4.664777264780168e-03, 2.506887247946924e+00, 9.942026743752919e-01, 9.983662668168696e-01, 1.752762507659598e-01, -3.680841666481359e-01
66, 2.409400045870000e-01, -5.915585896897953e-02, 9.957543446961377e-01, 2.067944315483138e-01, -6.299821213990614e-03, 2.506730420999732e+00, 9.940949426092724e-01, 9.983335226246275e-01, 1.757463113387797e-01, -3.749242787763528e-01
67, 2.275699973110000e-01, -5.869456802648413e-02, 9.956718090648344e-01, 2.072288357772474e-01, -8.018268899820168e-03, 2.506552997612819e+00, 9.939821911667911e-01, 9.983030373234831e-01, 1.761828445878379e-01, -3.820831005212004e-01
68, 2.144699990750000e-01, -5.813197420944613e-02, 9.956055487393829e-01, 2.076206444481655e-01, -9.832507569202743e-03, 2.506414981594525e+00, 9.938872522951365e-01, 9.982741192569469e-01, 1.765959631306784e-01, -3.881109653881573e-01
69, 2.016600072380000e-01, -5.746811193675738e-02, 9.955327459891622e-01, 2.079420894298238e-01, -1.174002876134995e-02, 2.506257682436330e+00, 9.937885950215923e-01, 9.982480225039343e-01, 1.769679695009659e-01, -3.943749192639789e-01
70, 1.891400069000000e-01, -5.670228146432130e-02, 9.954770780012859e-01, 2.082088109867308e-01, -1.375387943411363e-02, 2.506141530613373e+00, 9.937090319877673e-01, 9.982239209193361e-01, 1.773108589207458e-01, -3.994265404592207e-01
71, 1.769299954180000e-01, -5.583513598033686e-02, 9.954167167203813e-01, 2.083884154267288e-01, -1.587282795585671e-02, 2.506010074815480e+00, 9.936282724735174e-01, 9.982033210646127e-01, 1.776034181512228e-01, -4.045541286655640e-01
72, 1.650400012730000e-01, -5.486709202536137e-02, 9.953742907422968e-01, 2.085016302901163e-01, -1.811139058570968e-02, 2.505921492090159e+00, 9.935676959669200e-01, 9.981850096067587e-01, 1.778630836773455e-01, -4.084002560685741e-01
73, 1.534900069240000e-01, -5.379977779145956e-02, 9.953292796922053e-01, 2.085077379429949e-01, -2.046890870246481e-02, 2.505822162224665e+00, 9.935087781304071e-01, 9.981709554828319e-01, 1.780621277064387e-01, -4.121410710852665e-01
74, 1.422899961470000e-01, -5.263443049277360e-02, 9.953032378761573e-01, 2.084347154811740e-01, -2.296446130250320e-02, 2.505768116923225e+00, 9.934712668533672e-01, 9.981593840418936e-01, 1.782258476314237e-01, -4.145227394687511e-01
75, 1.314399987460000e-01, -5.137133628795417e-02, 9.952773953546756e-01, 2.082278543037278e-01, -2.559807574235174e-02, 2.505709369659747e+00, 9.934391582057639e-01, 9.981530403910597e-01, 1.783155393249315e-01, -4.165613837610228e-01
76, 1.209499984980000e-01, -5.001187382363489e-02, 9.952714624876497e-01, 2.079075534955208e-01, -2.839250328231854e-02, 2.505697032361957e+00, 9.934306370043062e-01, 9.981504287496176e-01, 1.783524520416362e-01, -4.171024124250016e-01
77, 1.108499988910000e-01, -4.856066993422563e-02, 9.952691416568764e-01, 2.074246652821727e-01, -3.135245371563036e-02, 2.505687814666030e+00, 9.934316952244951e-01, 9.981538195494315e-01, 1.783045252313688e-01, -4.170352238415781e-01
78, 1.011300012470000e-01, -4.701715290498424e-02, 9.952867789092087e-01, 2.067793809153222e-01, -3.450019050674161e-02, 2.505723383340803e+00, 9.934581347472645e-01, 9.981626962191259e-01, 1.781789996909389e-01, -4.153565239832052e-01
79, 9.181000292300000e-02, -4.538527151431038e-02, 9.953164586563986e-01, 2.059360453480039e-01, -3.785070490414540e-02, 2.505782565396700e+00, 9.935032993117028e-01, 9.981783086887328e-01, 1.779580134081554e-01, -4.124889325902998e-01
80, 8.290000259900000e-02, -4.366791468532204e-02, 9.953654361837249e-01, 2.048539665567724e-01, -4.142615447028578e-02, 2.505882135407913e+00, 9.935759221339165e-01, 9.982021537168608e-01, 1.776199823781721e-01, -4.078779597513307e-01
81, 7.440000027400000e-02, -4.186607976498817e-02, 9.954363617543124e-01, 2.034980970305435e-01, -4.524913559915047e-02, 2.506027895893017e+00, 9.936795183574517e-01, 9.982351022482601e-01, 1.771518638727753e-01, -4.013004217490974e-01
82, 6.633000075800000e-02, -3.998513962421356e-02, 9.955303803736452e-01, 2.017994644944950e-01, -4.934490020583819e-02, 2.506220215808771e+00, 9.938177445845869e-01, 9.982796750126146e-01, 1.765166670644813e-01, -3.925241533595597e-01
83, 5.869000032500000e-02, -3.802635805630503e-02, 9.956590633317918e-01, 1.996948188238829e-01, -5.374257297939641e-02, 2.506486375529386e+00, 9.940040022238841e-01, 9.983377230531412e-01, 1.756860796665583e-01, -3.806982714994240e-01
